0,-0.00320435,
0.0005,-0.00946045,
0.001,-0.0218201,
0.0015,-0.0300598,
0.002,-0.0309753,
0.0025,-0.0247192,
0.003,-0.0204468,
0.0035,-0.0187683,
0.004,-0.0114441,
0.0045,0.00518799,
0.005,0.0175476,
0.0055,0.0212097,
0.006,0.030365,
0.0065,0.0390625,
0.007,0.0242615,
0.0075,-0.00442505,
0.008,-0.0166321,
0.0085,-0.0102234,
0.009,0.00793457,
0.0095,0.0236511,
0.01,0.0231934,
0.0105,0.0109863,
0.011,-0.00320435,
0.0115,-0.00946045,
0.012,-0.00366211,
0.0125,0.00534058,
0.013,0.00778198,
0.0135,0.000762939,
0.014,-0.00564575,
0.0145,0.000762939,
0.015,0.00900269,
0.0155,0.00808716,
0.016,0.00167847,
0.0165,-0.00335693,
0.017,-0.00549316,
0.0175,-0.00183105,
0.018,0.00427246,
0.0185,0.0138855,
0.019,0.0239563,
0.0195,0.0302124,
0.02,0.0297546,
0.0205,0.0244141,
0.021,0.0270081,
0.0215,0.0396729,
0.022,0.0392151,
0.0225,0.0189209,
0.023,0,
0.0235,-0.0114441,
0.024,-0.0210571,
0.0245,-0.0314331,
0.025,-0.0346375,
0.0255,-0.0263977,
0.026,-0.0102234,
0.0265,0.00152588,
0.027,0.00320435,
0.0275,-0.00106812,
0.028,-0.00946045,
0.0285,-0.0163269,
0.029,-0.0131226,
0.0295,0.00335693,
0.03,0.0236511,
0.0305,0.0318909,
0.031,0.0227356,
0.0315,0.00701904,
0.032,-0.00808716,
0.0325,-0.0205994,
0.033,-0.0263977,
0.0335,-0.0213623,
0.034,-0.0137329,
0.0345,-0.0108337,
0.035,-0.00778198,
0.0355,-0.0012207,
0.036,0.00640869,
0.0365,0.0109863,
0.037,0.015564,
0.0375,0.017395,
0.038,0.019989,
0.0385,0.022583,
0.039,0.0186157,
0.0395,0.00900269,
0.04,-0.00656128,
0.0405,-0.0242615,
0.041,-0.0415039,
0.0415,-0.0532532,
0.042,-0.0559998,
0.0425,-0.0457764,
0.043,-0.0300598,
0.0435,-0.0218201,
0.044,-0.0215149,
0.0445,-0.019989,
0.045,-0.0163269,
0.0455,-0.0102234,
0.046,-0.00335693,
0.0465,-0.000915527,
0.047,-0.00488281,
0.0475,-0.0106812,
0.048,-0.0109863,
0.0485,-0.00198364,
0.049,0.00839233,
0.0495,0.00457764,
0.05,-0.0163269,
0.0505,-0.0352478,
0.051,-0.0352478,
0.0515,-0.0221252,
0.052,-0.0137329,
0.0525,-0.0157166,
0.053,-0.0135803,
0.0535,-0.00564575,
0.054,0.00183105,
0.0545,0.00686646,
0.055,0.0161743,
0.0555,0.0299072,
0.056,0.0447083,
0.0565,0.0430298,
0.057,0.0248718,
0.0575,0.0109863,
0.058,0.00564575,
0.0585,0.0062561,
0.059,0.00930786,
0.0595,0.00915527,
0.06,0.00946045,
0.0605,0.0119019,
0.061,0.015564,
0.0615,0.0134277,
0.062,0.00793457,
0.0625,0.00396729,
0.063,0.00427246,
0.0635,0.00686646,
0.064,0.00747681,
0.0645,0.00701904,
0.065,0.00320435,
0.0655,-0.00534058,
0.066,-0.0100708,
0.0665,-0.00610352,
0.067,0.000152588,
0.0675,0.00473022,
0.068,0.00518799,
0.0685,0.000610352,
0.069,-0.00915527,
0.0695,-0.0184631,
0.07,-0.0152588,
0.0705,0.000762939,
0.071,-0.00595093,
0.0715,-0.0305176,
0.072,-0.0445557,
0.0725,-0.0415039,
0.073,-0.0216675,
0.0735,0.00534058,
0.074,0.0189209,
0.0745,0.0135803,
0.075,0.000457764,
0.0755,-0.0106812,
0.076,-0.0166321,
0.0765,-0.0196838,
0.077,-0.0175476,
0.0775,-0.0119019,
0.078,-0.00778198,
0.0785,-0.00762939,
0.079,-0.00701904,
0.0795,-0.0109863,
0.08,-0.015564,
0.0805,-0.0140381,
0.081,-0.00793457,
0.0815,-0.00183105,
0.082,0.00198364,
0.0825,0.00137329,
0.083,-0.00366211,
0.0835,-0.00976563,
0.084,-0.010376,
0.0845,-0.00900269,
0.085,-0.00701904,
0.0855,-0.00320435,
0.086,-0.00244141,
0.0865,-0.00808716,
0.087,-0.0160217,
0.0875,-0.0218201,
0.088,-0.0190735,
0.0885,-0.0141907,
0.089,-0.0038147,
0.0895,0.0119019,
0.09,0.0204468,
0.0905,0.0152588,
0.091,0.00854492,
0.0915,0.00549316,
0.092,0.000762939,
0.0925,-0.000610352,
0.093,0.00518799,
0.0935,0.0102234,
0.094,0.0062561,
0.0945,-0.00183105,
0.095,-0.00213623,
0.0955,0.00808716,
0.096,0.0157166,
0.0965,0.0105286,
0.097,-0.00137329,
0.0975,-0.0088501,
0.098,-0.0119019,
0.0985,-0.0106812,
0.099,-0.00839233,
0.0995,-0.00549316,
0.1,-0.00167847,
0.1005,-0.00396729,
0.101,-0.00778198,
0.1015,-0.00534058,
0.102,-0.000610352,
0.1025,0.00289917,
0.103,0.00289917,
0.1035,0.00717163,
0.104,0.0166321,
0.1045,0.0238037,
0.105,0.0210571,
0.1055,0.0137329,
0.106,0.00808716,
0.1065,0.00442505,
0.107,0.00213623,
0.1075,-0.000305176,
0.108,-0.00137329,
0.1085,-0.00305176,
0.109,-0.00457764,
0.1095,-0.0100708,
0.11,-0.0157166,
0.1105,-0.0175476,
0.111,-0.0193787,
0.1115,-0.0254822,
0.112,-0.0263977,
0.1125,-0.0233459,
0.113,-0.0187683,
0.1135,-0.01297,
0.114,-0.00427246,
0.1145,0.00564575,
0.115,0.0106812,
0.1155,0.00778198,
0.116,0.00579834,
0.1165,0.00930786,
0.117,0.0154114,
0.1175,0.0247192,
0.118,0.0331116,
0.1185,0.0350952,
0.119,0.0253296,
0.1195,0.00579834,
0.12,-0.00961304,
0.1205,-0.0117493,
0.121,-0.00183105,
0.1215,0.00518799,
0.122,0.00427246,
0.1225,0,
0.123,-0.00549316,
0.1235,-0.0106812,
0.124,-0.0102234,
0.1245,-0.00717163,
0.125,-0.00610352,
0.1255,-0.0062561,
0.126,-0.00915527,
0.1265,-0.010376,
0.127,-0.0111389,
0.1275,-0.0105286,
0.128,-0.00793457,
0.1285,-0.00274658,
0.129,0.0050354,
0.1295,0.00686646,
0.13,0.00335693,
0.1305,0.00259399,
0.131,0.00610352,
0.1315,0.0132751,
0.132,0.0234985,
0.1325,0.0357056,
0.133,0.0402832,
0.1335,0.042572,
0.134,0.0427246,
0.1345,0.0334167,
0.135,0.0177002,
0.1355,0.00274658,
0.136,-0.0144958,
0.1365,-0.0340271,
0.137,-0.043335,
0.1375,-0.0457764,
0.138,-0.0553894,
0.1385,-0.068512,
0.139,-0.0646973,
0.1395,-0.0509644,
0.14,-0.0450134,
0.1405,-0.0415039,
0.141,-0.0294495,
0.1415,-0.0154114,
0.142,-0.00900269,
0.1425,-0.0117493,
0.143,-0.0212097,
0.1435,-0.0323486,
0.144,-0.0384521,
0.1445,-0.0323486,
0.145,-0.00915527,
0.1455,0.0241089,
0.146,0.0508118,
0.1465,0.0509644,
0.147,0.0279236,
0.1475,-0.0100708,
0.148,-0.0393677,
0.1485,-0.0427246,
0.149,-0.0283813,
0.1495,0.00289917,
0.15,0.0370789,
0.1505,0.0483704,
0.151,0.0408936,
0.1515,0.0332642,
0.152,0.0279236,
0.1525,0.0213623,
0.153,0.0154114,
0.1535,0.0062561,
0.154,0.00457764,
0.1545,0.0238037,
0.155,0.0419617,
0.1555,0.0453186,
0.156,0.0350952,
0.1565,0.0131226,
0.157,-0.0109863,
0.1575,-0.0178528,
0.158,-0.00915527,
0.1585,-0.00244141,
0.159,-0.00366211,
0.1595,-0.00854492,
0.16,-0.01297,
0.1605,-0.0177002,
0.161,-0.0209045,
0.1615,-0.0195313,
0.162,-0.0138855,
0.1625,-0.00930786,
0.163,-0.00595093,
0.1635,-0.00305176,
0.164,-0.00595093,
0.1645,-0.00961304,
0.165,-0.0123596,
0.1655,-0.0114441,
0.166,-0.00778198,
0.1665,-0.00534058,
0.167,-0.00534058,
0.1675,-0.00579834,
0.168,-0.00640869,
0.1685,-0.00656128,
0.169,-0.00228882,
0.1695,0.000610352,
0.17,0.000457764,
0.1705,-0.00183105,
0.171,-0.00244141,
0.1715,0.000305176,
0.172,0.0012207,
0.1725,0.00106812,
0.173,-0.000915527,
0.1735,-0.00427246,
0.174,-0.00595093,
0.1745,-0.00717163,
0.175,-0.00732422,
0.1755,-0.00961304,
0.176,-0.0111389,
0.1765,-0.00762939,
0.177,-0.00579834,
0.1775,-0.00518799,
0.178,-0.0088501,
0.1785,-0.0119019,
0.179,-0.0108337,
0.1795,-0.00930786,
0.18,-0.0100708,
0.1805,-0.00976563,
0.181,-0.00671387,
0.1815,-0.00366211,
0.182,-0.00228882,
0.1825,-0.00457764,
0.183,-0.00473022,
0.1835,-0.000915527,
0.184,0.00457764,
0.1845,0.00686646,
0.185,0.00396729,
0.1855,-0.00167847,
0.186,-0.00427246,
0.1865,-0.00427246,
0.187,-0.00473022,
0.1875,-0.00366211,
0.188,-0.0012207,
0.1885,0.00320435,
0.189,0.00839233,
0.1895,0.0131226,
0.19,0.0109863,
0.1905,0.00518799,
0.191,-0.00106812,
0.1915,-0.00289917,
0.192,-0.00228882,
0.1925,-0.00427246,
0.193,-0.00976563,
0.1935,-0.0138855,
0.194,-0.00961304,
0.1945,-0.00320435,
0.195,-0.00167847,
0.1955,-0.00228882,
0.196,-0.00198364,
0.1965,-0.00396729,
0.197,-0.00915527,
0.1975,-0.0112915,
0.198,-0.00961304,
0.1985,-0.0120544,
0.199,-0.017395,
0.1995,-0.0164795,
0.2,-0.00946045,
0.2005,-0.00213623,
0.201,0.00671387,
0.2015,0.0189209,
0.202,0.0305176,
0.2025,0.0369263,
0.203,0.0341797,
0.2035,0.0317383,
0.204,0.0430298,
0.2045,0.0723267,
0.205,0.0860596,
0.2055,0.0593567,
0.206,0.00701904,
0.2065,-0.0338745,
0.207,-0.040741,
0.2075,-0.0317383,
0.208,-0.0326538,
0.2085,-0.0404358,
0.209,-0.0427246,
0.2095,-0.042572,
0.21,-0.0415039,
0.2105,-0.0384521,
0.211,-0.0349426,
0.2115,-0.0286865,
0.212,-0.0218201,
0.2125,-0.0140381,
0.213,-0.00732422,
0.2135,-0.00244141,
0.214,-0.00198364,
0.2145,-0.00473022,
0.215,-0.00747681,
0.2155,-0.00930786,
0.216,-0.00808716,
0.2165,-0.00427246,
0.217,-0.0012207,
0.2175,0.000610352,
0.218,0.00152588,
0.2185,0.00106812,
0.219,0.000762939,
0.2195,0.00518799,
0.22,0.0102234,
0.2205,0.0143433,
0.221,0.0119019,
0.2215,0.00259399,
0.222,-0.00946045,
0.2225,-0.0143433,
0.223,-0.0108337,
0.2235,-0.00976563,
0.224,-0.00656128,
0.2245,-0.00366211,
0.225,-0.00137329,
0.2255,0.00213623,
0.226,0.00839233,
0.2265,0.0158691,
0.227,0.0175476,
0.2275,0.0166321,
0.228,0.0135803,
0.2285,0.00732422,
0.229,-0.00350952,
0.2295,-0.0187683,
0.23,-0.0308228,
0.2305,-0.0300598,
0.231,-0.0221252,
0.2315,-0.0157166,
0.232,-0.0128174,
0.2325,-0.00976563,
0.233,-0.0109863,
0.2335,-0.0138855,
0.234,-0.0134277,
0.2345,-0.0106812,
0.235,-0.00778198,
0.2355,-0.00869751,
0.236,-0.0141907,
0.2365,-0.0257874,
0.237,-0.0350952,
0.2375,-0.0248718,
0.238,-0.00549316,
0.2385,0.00442505,
0.239,0.00396729,
0.2395,0.00778198,
0.24,0.0170898,
0.2405,0.0257874,
0.241,0.027771,
0.2415,0.0198364,
0.242,0.00656128,
0.2425,-0.0106812,
0.243,-0.0213623,
0.2435,-0.0212097,
0.244,-0.0128174,
0.2445,0.00320435,
0.245,0.0354004,
0.2455,0.0544739,
0.246,0.0384521,
0.2465,0.0189209,
0.247,0.025177,
0.2475,0.0410461,
0.248,0.0415039,
0.2485,0.0271606,
0.249,0.0132751,
0.2495,0.0050354,
0.25,0,
0.2505,-0.00320435,
0.251,-0.00457764,
0.2515,-0.0038147,
0.252,-0.0038147,
0.2525,-0.0038147,
0.253,-0.00534058,
0.2535,-0.00808716,
0.254,-0.00915527,
0.2545,-0.00869751,
0.255,-0.00732422,
0.2555,-0.00366211,
0.256,-0.000457764,
0.2565,-0.00106812,
0.257,-0.00289917,
0.2575,-0.00488281,
0.258,-0.0062561,
0.2585,-0.00869751,
0.259,-0.0135803,
0.2595,-0.0141907,
0.26,-0.010376,
0.2605,-0.00350952,
0.261,-0.000305176,
0.2615,-0.000610352,
0.262,-0.00167847,
0.2625,-0.00549316,
0.263,-0.00961304,
0.2635,-0.0117493,
0.264,-0.0114441,
0.2645,-0.0135803,
0.265,-0.0164795,
0.2655,-0.017395,
0.266,-0.0144958,
0.2665,-0.00778198,
0.267,-0.00305176,
0.2675,-0.00244141,
0.268,0.000762939,
0.2685,0.00808716,
0.269,0.0105286,
0.2695,0.0038147,
0.27,-0.0012207,
0.2705,-0.00228882,
0.271,0.000610352,
0.2715,0.00259399,
0.272,0.00640869,
0.2725,0.0108337,
0.273,0.00930786,
0.2735,0.00701904,
0.274,0.00549316,
0.2745,0.0050354,
0.275,0.00289917,
0.2755,0.00137329,
0.276,-0.00183105,
0.2765,-0.012207,
0.277,-0.0283813,
0.2775,-0.0346375,
0.278,-0.0299072,
0.2785,-0.0227356,
0.279,-0.0247192,
0.2795,-0.0325012,
0.28,-0.0282288,
0.2805,-0.0144958,
0.281,0.00274658,
0.2815,0.0170898,
0.282,0.0231934,
0.2825,0.0228882,
0.283,0.0239563,
0.2835,0.0213623,
0.284,0.0186157,
0.2845,0.020752,
0.285,0.0256348,
0.2855,0.0308228,
0.286,0.0262451,
0.2865,0.00411987,
0.287,-0.0196838,
0.2875,-0.0234985,
0.288,-0.012207,
0.2885,-0.00595093,
0.289,-0.0135803,
0.2895,-0.0286865,
0.29,-0.0389099,
0.2905,-0.0328064,
0.291,-0.01297,
0.2915,-0.00183105,
0.292,-0.0177002,
0.2925,-0.0466919,
0.293,-0.0631714,
0.2935,-0.0575256,
0.294,-0.0354004,
0.2945,-0.00839233,
0.295,0.00732422,
0.2955,0.0125122,
0.296,0.0125122,
0.2965,0.0108337,
0.297,0.0195313,
0.2975,0.0354004,
0.298,0.0421143,
0.2985,0.0350952,
0.299,0.0248718,
0.2995,0.0204468,
0.3,0.0178528,
0.3005,0.00747681,
0.301,-0.00274658,
0.3015,-0.00167847,
0.302,0.0050354,
0.3025,0.0050354,
0.303,-0.000457764,
0.3035,-0.00244141,
0.304,0.000915527,
0.3045,0.0108337,
0.305,0.0172424,
0.3055,0.0137329,
0.306,0.00915527,
0.3065,0.0160217,
0.307,0.0233459,
0.3075,0.014801,
0.308,0.00106812,
0.3085,-0.00793457,
0.309,-0.010376,
0.3095,-0.0114441,
0.31,-0.0134277,
0.3105,-0.00839233,
0.311,0.00473022,
0.3115,0.0123596,
0.312,0.0128174,
0.3125,0.0151062,
0.313,0.020752,
0.3135,0.0216675,
0.314,0.017395,
0.3145,0.0123596,
0.315,0.00793457,
0.3155,-0.00427246,
0.316,-0.0288391,
0.3165,-0.0569153,
0.317,-0.0642395,
0.3175,-0.0500488,
0.318,-0.0326538,
0.3185,-0.0244141,
0.319,-0.0219727,
0.3195,-0.0175476,
0.32,-0.00991821,
0.3205,-0.00488281,
0.321,-0.00823975,
0.3215,-0.0146484,
0.322,-0.0151062,
0.3225,-0.00930786,
0.323,0.00274658,
0.3235,0.0154114,
0.324,0.0160217,
0.3245,0.0050354,
0.325,-0.00778198,
0.3255,-0.0111389,
0.326,-0.00762939,
0.3265,-0.00762939,
0.327,-0.0106812,
0.3275,-0.00854492,
0.328,-0.00717163,
0.3285,-0.00656128,
0.329,0.000610352,
0.3295,0.014801,
0.33,0.0253296,
0.3305,0.0276184,
0.331,0.0216675,
0.3315,0.0180054,
0.332,0.018158,
0.3325,0.0175476,
0.333,0.0123596,
0.3335,0.00137329,
0.334,-0.0137329,
0.3345,-0.0338745,
0.335,-0.0456238,
0.3355,-0.0440979,
0.336,-0.0297546,
0.3365,-0.0109863,
0.337,0.000457764,
0.3375,0.00335693,
0.338,0.00244141,
0.3385,0.000762939,
0.339,-0.00198364,
0.3395,-0.00335693,
0.34,-0.0050354,
0.3405,-0.00564575,
0.341,-0.00396729,
0.3415,-0.0038147,
0.342,-0.00640869,
0.3425,-0.012207,
0.343,-0.0192261,
0.3435,-0.0242615,
0.344,-0.0195313,
0.3445,-0.00808716,
0.345,0.000457764,
0.3455,-0.00549316,
0.346,-0.0169373,
0.3465,-0.0233459,
0.347,-0.0253296,
0.3475,-0.0262451,
0.348,-0.0224304,
0.3485,-0.00961304,
0.349,0.0183105,
0.3495,0.0448608,
0.35,0.0515747,
0.3505,0.0416565,
0.351,0.0430298,
0.3515,0.0553894,
0.352,0.0485229,
0.3525,0.0253296,
0.353,0.0050354,
0.3535,-0.00564575,
0.354,-0.0131226,
0.3545,-0.0239563,
0.355,-0.0216675,
0.3555,-0.00595093,
0.356,0.00427246,
0.3565,-0.00183105,
0.357,-0.00946045,
0.3575,-0.012207,
0.358,-0.012207,
0.3585,-0.0149536,
0.359,-0.0172424,
0.3595,-0.0164795,
0.36,-0.010376,
0.3605,-0.00213623,
0.361,0,
0.3615,0.00244141,
0.362,0.00823975,
0.3625,0.0143433,
0.363,0.0163269,
0.3635,0.01297,
0.364,0.00930786,
0.3645,0.00579834,
0.365,0.0038147,
0.3655,-0.0062561,
0.366,-0.0212097,
0.3665,-0.0299072,
0.367,-0.0247192,
0.3675,-0.01297,
0.368,-0.00732422,
0.3685,-0.00564575,
0.369,-0.00396729,
0.3695,-0.00549316,
0.37,-0.0126648,
0.3705,-0.0215149,
0.371,-0.0233459,
0.3715,-0.0186157,
0.372,-0.0180054,
0.3725,-0.0175476,
0.373,-0.0143433,
0.3735,-0.00488281,
0.374,0.0050354,
0.3745,0.00686646,
0.375,0.00350952,
0.3755,0.00274658,
0.376,0.000610352,
0.3765,-0.00106812,
0.377,-0.00350952,
0.3775,-0.00427246,
0.378,-0.0012207,
0.3785,0.00152588,
0.379,-0.000457764,
0.3795,-0.00183105,
0.38,-0.000457764,
0.3805,0.00167847,
0.381,-0.000457764,
0.3815,-0.00350952,
0.382,-0.00686646,
0.3825,-0.00518799,
0.383,-0.00289917,
0.3835,-0.00305176,
0.384,-0.00350952,
0.3845,-0.00335693,
0.385,-0.00595093,
0.3855,-0.00793457,
0.386,-0.00976563,
0.3865,-0.010376,
0.387,-0.0088501,
0.3875,-0.00656128,
0.388,0.000305176,
0.3885,0.00518799,
0.389,0.0012207,
0.3895,-0.00610352,
0.39,-0.00366211,
0.3905,0.00930786,
0.391,0.0233459,
0.3915,0.0280762,
0.392,0.0228882,
0.3925,0.0141907,
0.393,0.0114441,
0.3935,0.015564,
0.394,0.0192261,
0.3945,0.00595093,
0.395,-0.0297546,
0.3955,-0.0561523,
0.396,-0.0482178,
0.3965,-0.0241089,
0.397,-0.0102234,
0.3975,-0.00488281,
0.398,0,
0.3985,0.00244141,
0.399,0.00335693,
0.3995,0.00778198,
0.4,0.0115967,
0.4005,0.010376,
0.401,0.00518799,
0.4015,0.00167847,
0.402,0.00289917,
0.4025,0.00320435,
0.403,0.000457764,
0.4035,-0.000762939,
0.404,-0.000915527,
0.4045,0.000610352,
0.405,0.00671387,
0.4055,0.0143433,
0.406,0.012207,
0.4065,0.00335693,
0.407,-0.00549316,
0.4075,-0.0100708,
0.408,-0.0111389,
0.4085,-0.00900269,
0.409,-0.0132751,
0.4095,-0.020752,
0.41,-0.0250244,
0.4105,-0.0250244,
0.411,-0.0297546,
0.4115,-0.0422668,
0.412,-0.0448608,
0.4125,-0.0125122,
0.413,0.0296021,
0.4135,0.0395203,
0.414,0.0236511,
0.4145,0.0131226,
0.415,0.0111389,
0.4155,0.0135803,
0.416,0.0186157,
0.4165,0.037384,
0.417,0.0671387,
0.4175,0.0785828,
0.418,0.0500488,
0.4185,0.00671387,
0.419,-0.00595093,
0.4195,0.0144958,
0.42,0.0450134,
0.4205,0.0587463,
0.421,0.0309753,
0.4215,-0.00869751,
0.422,-0.0288391,
0.4225,-0.0297546,
0.423,-0.0254822,
0.4235,-0.0263977,
0.424,-0.0366211,
0.4245,-0.0637817,
0.425,-0.0900269,
0.4255,-0.0871277,
0.426,-0.063324,
0.4265,-0.0454712,
0.427,-0.0413513,
0.4275,-0.0363159,
0.428,-0.0242615,
0.4285,-0.0119019,
0.429,-0.00427246,
0.4295,0.000610352,
0.43,0.00411987,
0.4305,0.0100708,
0.431,0.0227356,
0.4315,0.0346375,
0.432,0.0299072,
0.4325,0.0164795,
0.433,0.00762939,
0.4335,0.000762939,
0.434,-0.00320435,
0.4345,-0.00717163,
0.435,-0.00900269,
0.4355,-0.00671387,
0.436,-0.00335693,
0.4365,0.00152588,
0.437,0.00823975,
0.4375,0.00930786,
0.438,0.0050354,
0.4385,0.00289917,
0.439,0.0114441,
0.4395,0.0265503,
0.44,0.03479,
0.4405,0.0270081,
0.441,0.00961304,
0.4415,-0.00335693,
0.442,-0.0100708,
0.4425,-0.0105286,
0.443,-0.0157166,
0.4435,-0.0227356,
0.444,-0.0212097,
0.4445,-0.00854492,
0.445,0.00335693,
0.4455,0.00549316,
0.446,0.00335693,
0.4465,0.00518799,
0.447,0.0109863,
0.4475,0.00869751,
0.448,-0.000610352,
0.4485,-0.00183105,
0.449,0.00137329,
0.4495,-0.000152588,
0.45,-0.00762939,
0.4505,-0.0166321,
0.451,-0.0187683,
0.4515,-0.0146484,
0.452,-0.01297,
0.4525,-0.0178528,
0.453,-0.0248718,
0.4535,-0.0262451,
0.454,-0.0195313,
0.4545,-0.00442505,
0.455,0.0175476,
0.4555,0.0430298,
0.456,0.0540161,
0.4565,0.0357056,
0.457,0.00823975,
0.4575,-0.0111389,
0.458,-0.012207,
0.4585,0.00640869,
0.459,0.020752,
0.4595,0.0125122,
0.46,-0.00106812,
0.4605,-0.00549316,
0.461,-0.00213623,
0.4615,0.00106812,
0.462,-0.00183105,
0.4625,-0.00915527,
0.463,-0.0088501,
0.4635,-0.00183105,
0.464,-0.000152588,
0.4645,-0.0038147,
0.465,-0.00549316,
0.4655,-0.00732422,
0.466,-0.0119019,
0.4665,-0.0158691,
0.467,-0.0175476,
0.4675,-0.0238037,
0.468,-0.0294495,
0.4685,-0.0337219,
0.469,-0.0308228,
0.4695,-0.0131226,
0.47,0.00732422,
0.4705,0.0161743,
0.471,0.0128174,
0.4715,0.00991821,
0.472,0.0152588,
0.4725,0.0222778,
0.473,0.0294495,
0.4735,0.0332642,
0.474,0.0270081,
0.4745,0.00823975,
0.475,-0.00701904,
0.4755,-0.0125122,
0.476,-0.0123596,
0.4765,-0.00686646,
0.477,0.00534058,
0.4775,0.018158,
0.478,0.0227356,
0.4785,0.0248718,
0.479,0.0296021,
0.4795,0.0328064,
0.48,0.0289917,
0.4805,0.0213623,
0.481,0.0125122,
0.4815,0.00854492,
0.482,0.00442505,
0.4825,-0.0233459,
0.483,-0.0765991,
0.4835,-0.136108,
0.484,-0.169067,
0.4845,-0.154114,
0.485,-0.113525,
0.4855,-0.0845337,
0.486,-0.0680542,
0.4865,-0.0531006,
0.487,-0.0334167,
0.4875,-0.00747681,
0.488,0.0109863,
0.4885,0.0202942,
0.489,0.0270081,
0.4895,0.03479,
0.49,0.0492859,
0.4905,0.0672913,
0.491,0.0791931,
0.4915,0.0773621,
0.492,0.0665283,
0.4925,0.0538635,
0.493,0.0463867,
0.4935,0.0402832,
0.494,0.0335693,
0.4945,0.0308228,
0.495,0.0280762,
0.4955,0.0238037,
0.496,0.014801,
0.4965,-0.00213623,
0.497,-0.0172424,
0.4975,-0.0247192,
0.498,-0.0267029,
0.4985,-0.0279236,
0.499,-0.0184631,
0.4995,0.00640869,
0.5,0.0178528,
0.5005,0.00259399,
0.501,-0.0227356,
0.5015,-0.03479,
0.502,-0.0247192,
0.5025,-0.0012207,
0.503,0.0205994,
0.5035,0.0205994,
0.504,-0.000610352,
0.5045,-0.019989,
0.505,-0.0221252,
0.5055,-0.012207,
0.506,-0.00549316,
0.5065,0.00259399,
0.507,0.00549316,
0.5075,-0.00488281,
0.508,-0.00946045,
0.5085,0.0114441,
0.509,0.0457764,
0.5095,0.0694275,
0.51,0.0718689,
0.5105,0.055542,
0.511,0.0245667,
0.5115,-0.0128174,
0.512,-0.0402832,
0.5125,-0.0509644,
0.513,-0.0544739,
0.5135,-0.0561523,
0.514,-0.0559998,
0.5145,-0.0505066,
0.515,-0.0411987,
0.5155,-0.0259399,
0.516,-0.015564,
0.5165,-0.0146484,
0.517,-0.0151062,
0.5175,-0.0134277,
0.518,-0.0111389,
0.5185,-0.00900269,
0.519,-0.00839233,
0.5195,-0.0088501,
0.52,-0.00976563,
0.5205,-0.00915527,
0.521,-0.00396729,
0.5215,0.00335693,
0.522,0.0119019,
0.5225,0.0166321,
0.523,0.00991821,
0.5235,0.000610352,
0.524,-0.00747681,
0.5245,-0.0100708,
0.525,-0.00595093,
0.5255,0.00427246,
0.526,0.00839233,
0.5265,0.00457764,
0.527,-0.000457764,
0.5275,-0.000457764,
0.528,0.00289917,
0.5285,0.0062561,
0.529,0.00869751,
0.5295,0.00442505,
0.53,-0.000457764,
0.5305,-0.000610352,
0.531,0.00167847,
0.5315,0,
0.532,-0.00106812,
0.5325,-0.00366211,
0.533,-0.0062561,
0.5335,-0.00640869,
0.534,-0.0062561,
0.5345,-0.0062561,
0.535,-0.00167847,
0.5355,0.00366211,
0.536,0.0108337,
0.5365,0.0170898,
0.537,0.0137329,
0.5375,0.00534058,
0.538,-0.00442505,
0.5385,-0.0120544,
0.539,-0.0115967,
0.5395,-0.00534058,
0.54,0.000152588,
0.5405,0.00244141,
0.541,0.000152588,
0.5415,-0.000762939,
0.542,-0.00198364,
0.5425,-0.00640869,
0.543,-0.0115967,
0.5435,-0.00778198,
0.544,0.00152588,
0.5445,0.00793457,
0.545,0.00366211,
0.5455,-0.0109863,
0.546,-0.0276184,
0.5465,-0.0325012,
0.547,-0.0221252,
0.5475,-0.0088501,
0.548,0.000915527,
0.5485,0.00457764,
0.549,0.0108337,
0.5495,0.0146484,
0.55,0.0088501,
0.5505,0.000152588,
0.551,-0.00427246,
0.5515,-0.00473022,
0.552,0.000762939,
0.5525,0.0151062,
0.553,0.0286865,
0.5535,0.0219727,
0.554,0.00534058,
0.5545,-0.00350952,
0.555,0.000457764,
0.5555,0.0062561,
0.556,0.00778198,
0.5565,0.00640869,
0.557,0.00305176,
0.5575,0.00137329,
0.558,0,
0.5585,-0.00137329,
0.559,-0.00335693,
0.5595,-0.0088501,
0.56,-0.0187683,
0.5605,-0.0276184,
0.561,-0.0267029,
0.5615,-0.0248718,
0.562,-0.0248718,
0.5625,-0.0234985,
0.563,-0.0163269,
0.5635,-0.00823975,
0.564,-0.00778198,
0.5645,-0.00610352,
0.565,0.0050354,
0.5655,0.0227356,
0.566,0.0299072,
0.5665,0.0190735,
0.567,0.00244141,
0.5675,-0.00564575,
0.568,-0.00640869,
0.5685,-0.00823975,
0.569,-0.0125122,
0.5695,-0.0111389,
0.57,-0.00259399,
0.5705,0.00701904,
0.571,0.0161743,
0.5715,0.0183105,
0.572,0.0149536,
0.5725,0.0088501,
0.573,0.00152588,
0.5735,-0.00137329,
0.574,0.000762939,
0.5745,0.00259399,
0.575,-0.00244141,
0.5755,-0.0175476,
0.576,-0.0234985,
0.5765,-0.0125122,
0.577,0,
0.5775,-0.00274658,
0.578,-0.0187683,
0.5785,-0.0228882,
0.579,-0.00427246,
0.5795,0.0123596,
0.58,0.00335693,
0.5805,-0.0219727,
0.581,-0.035553,
0.5815,-0.0250244,
0.582,-0.0115967,
0.5825,-0.00671387,
0.583,-0.00396729,
0.5835,0.00183105,
0.584,0.00427246,
0.5845,0.00183105,
0.585,0.000915527,
0.5855,-0.00213623,
0.586,-0.00686646,
0.5865,-0.00198364,
0.587,0.0088501,
0.5875,0.0177002,
0.588,0.0180054,
0.5885,0.014801,
0.589,0.0109863,
0.5895,0.00564575,
0.59,0.00350952,
0.5905,0.00640869,
0.591,0.0112915,
0.5915,0.0164795,
0.592,0.0180054,
0.5925,0.0131226,
0.593,-0.00152588,
0.5935,-0.0141907,
0.594,-0.0183105,
0.5945,-0.0151062,
0.595,-0.00946045,
0.5955,-0.015564,
0.596,-0.035553,
0.5965,-0.0454712,
0.597,-0.0379944,
0.5975,-0.0239563,
0.598,-0.0111389,
0.5985,-0.00213623,
0.599,0.00305176,
0.5995,0.00213623,
0.6,0.00335693,
0.6005,0.00686646,
0.601,0.00656128,
0.6015,0.000305176,
0.602,-0.00671387,
0.6025,-0.00915527,
0.603,-0.0115967,
0.6035,-0.01297,
0.604,-0.0108337,
0.6045,-0.00396729,
0.605,-0.00198364,
0.6055,-0.00808716,
0.606,-0.0105286,
0.6065,-0.00656128,
0.607,-0.000762939,
0.6075,0.00167847,
0.608,-0.000610352,
0.6085,0.00717163,
0.609,0.0285339,
0.6095,0.0421143,
0.61,0.0349426,
0.6105,0.0280762,
0.611,0.0216675,
0.6115,0.00976563,
0.612,0.00366211,
0.6125,0.00732422,
0.613,0.00900269,
0.6135,0.00762939,
0.614,0.00610352,
0.6145,0.00335693,
0.615,-0.00244141,
0.6155,-0.0109863,
0.616,-0.0170898,
0.6165,-0.0231934,
0.617,-0.0285339,
0.6175,-0.0250244,
0.618,-0.0140381,
0.6185,0.000457764,
0.619,0.0163269,
0.6195,0.0222778,
0.62,0.017395,
0.6205,0.0100708,
0.621,0.00228882,
0.6215,-0.00305176,
0.622,-0.00274658,
0.6225,0.00106812,
0.623,0.0050354,
0.6235,0.00717163,
0.624,0.00930786,
0.6245,0.00747681,
0.625,0.00167847,
0.6255,-0.00274658,
0.626,-0.00717163,
0.6265,-0.015564,
0.627,-0.0212097,
0.6275,-0.0209045,
0.628,-0.012207,
0.6285,-0.00457764,
0.629,-0.00411987,
0.6295,-0.00732422,
0.63,-0.00534058,
0.6305,0.00152588,
0.631,0.00442505,
0.6315,0.00289917,
0.632,0.00289917,
0.6325,0.00305176,
0.633,-0.00411987,
0.6335,-0.00976563,
0.634,-0.0088501,
0.6345,-0.00671387,
0.635,-0.00518799,
0.6355,-0.00366211,
0.636,-0.0012207,
0.6365,0.00198364,
0.637,0.00579834,
0.6375,0.00350952,
0.638,-0.00305176,
0.6385,-0.00442505,
0.639,-0.00244141,
0.6395,-0.00213623,
0.64,-0.00442505,
0.6405,-0.00518799,
0.641,-0.00396729,
0.6415,-0.00366211,
0.642,-0.00427246,
0.6425,-0.00152588,
0.643,-0.000305176,
0.6435,-0.00228882,
0.644,-0.00411987,
0.6445,-0.00213623,
0.645,0.000457764,
0.6455,-0.00106812,
0.646,-0.00244141,
0.6465,-0.00183105,
0.647,-0.00274658,
0.6475,-0.00366211,
0.648,-0.00457764,
0.6485,-0.00366211,
0.649,-0.00213623,
0.6495,-0.00320435,
0.65,-0.00427246,
0.6505,-0.00152588,
0.651,0.000610352,
0.6515,0.00259399,
0.652,0.00473022,
0.6525,0.00350952,
0.653,0.000610352,
0.6535,0.000305176,
0.654,0.0012207,
0.6545,-0.00320435,
0.655,-0.00869751,
0.6555,-0.0134277,
0.656,-0.0202942,
0.6565,-0.027771,
0.657,-0.0314331,
0.6575,-0.027771,
0.658,-0.0158691,
0.6585,-0.00411987,
0.659,0.00244141,
0.6595,0.00534058,
0.66,0.00549316,
0.6605,0.00411987,
0.661,0.0088501,
0.6615,0.0141907,
0.662,0.00778198,
0.6625,-0.00595093,
0.663,-0.0132751,
0.6635,-0.0172424,
0.664,-0.0270081,
0.6645,-0.0421143,
0.665,-0.0372314,
0.6655,-0.00610352,
0.666,0.0274658,
0.6665,0.0428772,
0.667,0.0379944,
0.6675,0.0263977,
0.668,0.0219727,
0.6685,0.0202942,
0.669,0.0175476,
0.6695,0.00930786,
0.67,-0.00427246,
0.6705,-0.0218201,
0.671,-0.0379944,
0.6715,-0.0421143,
0.672,-0.0366211,
0.6725,-0.0311279,
0.673,-0.0270081,
0.6735,-0.0245667,
0.674,-0.0224304,
0.6745,-0.0238037,
0.675,-0.0184631,
0.6755,0.00427246,
0.676,0.032959,
0.6765,0.0379944,
0.677,0.0201416,
0.6775,0.00656128,
0.678,0.00427246,
0.6785,0.0114441,
0.679,0.0149536,
0.6795,0.00411987,
0.68,-0.00930786,
0.6805,-0.0163269,
0.681,-0.0192261,
0.6815,-0.0161743,
0.682,-0.00579834,
0.6825,0.00396729,
0.683,0.00930786,
0.6835,0.00991821,
0.684,0.010376,
0.6845,0.0131226,
0.685,0.0210571,
0.6855,0.0323486,
0.686,0.0376892,
0.6865,0.0367737,
0.687,0.0312805,
0.6875,0.014801,
0.688,-0.0012207,
0.6885,-0.0128174,
0.689,-0.0238037,
0.6895,-0.0286865,
0.69,-0.0282288,
0.6905,-0.0250244,
0.691,-0.0183105,
0.6915,-0.00778198,
0.692,0.00778198,
0.6925,0.0241089,
0.693,0.0282288,
0.6935,0.0210571,
0.694,0.00976563,
0.6945,0,
0.695,-0.00793457,
0.6955,-0.010376,
0.696,-0.00946045,
0.6965,-0.0114441,
0.697,-0.00350952,
0.6975,0.00656128,
0.698,-0.0117493,
0.6985,-0.039978,
0.699,-0.0299072,
0.6995,0.00869751,
0.7,0.0257874,
0.7005,0.00946045,
0.701,-0.0151062,
0.7015,-0.03479,
0.702,-0.0401306,
0.7025,-0.0242615,
0.703,-0.00686646,
0.7035,-0.000762939,
0.704,-0.000305176,
0.7045,-0.000915527,
0.705,-0.00305176,
0.7055,-0.0100708,
0.706,-0.0198364,
0.7065,-0.0230408,
0.707,-0.0180054,
0.7075,-0.00869751,
0.708,0.00656128,
0.7085,0.0244141,
0.709,0.0222778,
0.7095,-0.00427246,
0.71,-0.0315857,
0.7105,-0.0366211,
0.711,-0.0219727,
0.7115,-0.0038147,
0.712,0.00991821,
0.7125,0.0106812,
0.713,0.0102234,
0.7135,0.0245667,
0.714,0.0416565,
0.7145,0.0457764,
0.715,0.0523376,
0.7155,0.063324,
0.716,0.0598145,
0.7165,0.0375366,
0.717,0.00595093,
0.7175,-0.0201416,
0.718,-0.0370789,
0.7185,-0.0402832,
0.719,-0.0346375,
0.7195,-0.0285339,
0.72,-0.0250244,
0.7205,-0.0248718,
0.721,-0.0248718,
0.7215,-0.0216675,
0.722,-0.0195313,
0.7225,-0.012207,
0.723,0.00198364,
0.7235,0.0160217,
0.724,0.0169373,
0.7245,-0.0012207,
0.725,-0.0195313,
0.7255,-0.0268555,
0.726,-0.0254822,
0.7265,-0.0213623,
0.727,-0.0161743,
0.7275,-0.0109863,
0.728,-0.00427246,
0.7285,0.00213623,
0.729,0.00442505,
0.7295,0.00289917,
0.73,0.0050354,
0.7305,0.0158691,
0.731,0.0279236,
0.7315,0.0402832,
0.732,0.0424194,
0.7325,0.0279236,
0.733,0.00839233,
0.7335,-0.00396729,
0.734,-0.00305176,
0.7345,-0.00244141,
0.735,-0.00686646,
0.7355,-0.00915527,
0.736,-0.00778198,
0.7365,-0.00244141,
0.737,0.000305176,
0.7375,-0.0062561,
0.738,-0.0114441,
0.7385,-0.012207,
0.739,-0.0117493,
0.7395,-0.010376,
0.74,-0.00656128,
0.7405,0.00152588,
0.741,0.00732422,
0.7415,0.0102234,
0.742,0.0106812,
0.7425,0.00900269,
0.743,0.00457764,
0.7435,-0.000305176,
0.744,-0.0038147,
0.7445,-0.00411987,
0.745,-0.00457764,
0.7455,-0.00473022,
0.746,-0.0062561,
0.7465,-0.0108337,
0.747,-0.0108337,
0.7475,-0.0108337,
0.748,-0.00991821,
0.7485,-0.00747681,
0.749,-0.00839233,
0.7495,-0.00946045,
0.75,-0.00686646,
0.7505,-0.000457764,
0.751,0.0038147,
0.7515,0.0012207,
0.752,-0.00289917,
0.7525,-0.000762939,
0.753,0.00335693,
0.7535,0.00640869,
0.754,0.00442505,
0.7545,0.00167847,
0.755,0.00259399,
0.7555,0.00106812,
0.756,-0.00289917,
0.7565,-0.00656128,
0.757,-0.00701904,
0.7575,-0.00137329,
0.758,0.00350952,
0.7585,-0.00610352,
0.759,-0.0189209,
0.7595,-0.0141907,
0.76,-0.000915527,
0.7605,0.0038147,
0.761,-0.00305176,
0.7615,-0.00762939,
0.762,-0.00640869,
0.7625,-0.00411987,
0.763,-0.00411987,
0.7635,-0.00640869,
0.764,-0.00473022,
0.7645,-0.00152588,
0.765,-0.00686646,
0.7655,-0.0231934,
0.766,-0.0309753,
0.7665,-0.0219727,
0.767,-0.0109863,
0.7675,-0.00854492,
0.768,-0.0112915,
0.7685,-0.0180054,
0.769,-0.0244141,
0.7695,-0.0228882,
0.77,-0.0131226,
0.7705,-0.00427246,
0.771,0.000915527,
0.7715,0.00457764,
0.772,0.00854492,
0.7725,0.00869751,
0.773,0.00854492,
0.7735,0.00991821,
0.774,0.0102234,
0.7745,0.00534058,
0.775,-0.00686646,
0.7755,-0.0239563,
0.776,-0.0317383,
0.7765,-0.0312805,
0.777,-0.0314331,
0.7775,-0.0309753,
0.778,-0.0213623,
0.7785,0.0062561,
0.779,0.0430298,
0.7795,0.0596619,
0.78,0.0463867,
0.7805,0.0184631,
0.781,-0.00564575,
0.7815,-0.0212097,
0.782,-0.0296021,
0.7825,-0.0372314,
0.783,-0.0457764,
0.7835,-0.0492859,
0.784,-0.0364685,
0.7845,-0.0218201,
0.785,-0.0160217,
0.7855,-0.00732422,
0.786,0.0183105,
0.7865,0.0564575,
0.787,0.0697327,
0.7875,0.0440979,
0.788,0.0117493,
0.7885,-0.00274658,
0.789,-0.00915527,
0.7895,-0.0167847,
0.79,-0.0238037,
0.7905,-0.0296021,
0.791,-0.03479,
0.7915,-0.0341797,
0.792,-0.00701904,
0.7925,0.0387573,
0.793,0.0784302,
0.7935,0.087738,
0.794,0.0631714,
0.7945,0.0375366,
0.795,0.0233459,
0.7955,0.0100708,
0.796,-0.00488281,
0.7965,-0.0186157,
0.797,-0.0273132,
0.7975,-0.0216675,
0.798,-0.0112915,
0.7985,-0.0166321,
0.799,-0.0265503,
0.7995,-0.0178528,
0.8,0.00518799,
0.8005,0.0187683,
0.801,0.0119019,
0.8015,0.00213623,
0.802,-0.00411987,
0.8025,-0.0117493,
0.803,-0.0167847,
0.8035,-0.012207,
0.804,0.0038147,
0.8045,0.0144958,
0.805,0.0152588,
0.8055,0.0106812,
0.806,0.0088501,
0.8065,0.01297,
0.807,0.0177002,
0.8075,0.0157166,
0.808,0.00961304,
0.8085,0.00274658,
0.809,-0.00595093,
0.8095,-0.0167847,
0.81,-0.0204468,
0.8105,-0.0193787,
0.811,-0.0267029,
0.8115,-0.035553,
0.812,-0.0424194,
0.8125,-0.0463867,
0.813,-0.0408936,
0.8135,-0.0262451,
0.814,-0.00915527,
0.8145,-0.00183105,
0.815,-0.00396729,
0.8155,-0.0114441,
0.816,-0.0177002,
0.8165,-0.0187683,
0.817,-0.0195313,
0.8175,-0.0184631,
0.818,-0.0189209,
0.8185,-0.0193787,
0.819,-0.0184631,
0.8195,-0.0195313,
0.82,-0.0236511,
0.8205,-0.0262451,
0.821,-0.0238037,
0.8215,-0.0169373,
0.822,-0.00778198,
0.8225,0.0100708,
0.823,0.0402832,
0.8235,0.0717163,
0.824,0.0770569,
0.8245,0.0517273,
0.825,0.0239563,
0.8255,0.0125122,
0.826,0.0117493,
0.8265,0.00762939,
0.827,0.00518799,
0.8275,0.00564575,
0.828,0.00579834,
0.8285,0.00350952,
0.829,-0.000152588,
0.8295,-0.00457764,
0.83,-0.00640869,
0.8305,-0.00152588,
0.831,0.0038147,
0.8315,0.00396729,
0.832,0.00152588,
0.8325,-0.00152588,
0.833,-0.000915527,
0.8335,0.000915527,
0.834,0.00228882,
0.8345,-0.000762939,
0.835,-0.00534058,
0.8355,-0.00793457,
0.836,-0.00488281,
0.8365,-0.00366211,
0.837,-0.00411987,
0.8375,-0.00793457,
0.838,-0.0102234,
0.8385,-0.00671387,
0.839,-0.00305176,
0.8395,0.00106812,
0.84,-0.000915527,
0.8405,-0.00396729,
0.841,0.00442505,
0.8415,0.0166321,
0.842,0.0167847,
0.8425,0.0135803,
0.843,0.00793457,
0.8435,0.00457764,
0.844,0.00183105,
0.8445,-0.00106812,
0.845,-0.00366211,
0.8455,-0.00427246,
0.846,-0.00701904,
0.8465,-0.0144958,
0.847,-0.0244141,
0.8475,-0.0318909,
0.848,-0.0257874,
0.8485,-0.0111389,
0.849,-0.0012207,
0.8495,0.00244141,
0.85,0.00106812,
0.8505,-0.00457764,
0.851,-0.00869751,
0.8515,-0.00579834,
0.852,0.00900269,
0.8525,0.0259399,
0.853,0.0222778,
0.8535,0.00289917,
0.854,-0.0100708,
0.8545,-0.00976563,
0.855,-0.00259399,
0.8555,0.00518799,
0.856,0.00350952,
0.8565,-0.0012207,
0.857,-0.00366211,
0.8575,-0.00671387,
0.858,-0.0131226,
0.8585,-0.0227356,
0.859,-0.0286865,
0.8595,-0.0352478,
0.86,-0.0468445,
0.8605,-0.0471497,
0.861,-0.0305176,
0.8615,-0.00991821,
0.862,0.00991821,
0.8625,0.0296021,
0.863,0.0375366,
0.8635,0.0312805,
0.864,0.0212097,
0.8645,0.0140381,
0.865,0.0111389,
0.8655,0.0102234,
0.866,0.0111389,
0.8665,0.0125122,
0.867,0.0106812,
0.8675,0.00564575,
0.868,0.00274658,
0.8685,0.00152588,
0.869,0.00198364,
0.8695,0.00350952,
0.87,0.00579834,
0.8705,0.00549316,
0.871,0.00167847,
0.8715,-0.00305176,
0.872,-0.0038147,
0.8725,-0.00244141,
0.873,0.00152588,
0.8735,0.00656128,
0.874,0.00823975,
0.8745,0.00671387,
0.875,0.00518799,
0.8755,0.00671387,
0.876,0.00991821,
0.8765,0.012207,
0.877,0.0157166,
0.8775,0.0177002,
0.878,0.00930786,
0.8785,-0.0062561,
0.879,-0.0143433,
0.8795,-0.00854492,
0.88,-0.00732422,
0.8805,-0.0144958,
0.881,-0.0241089,
0.8815,-0.0250244,
0.882,-0.0166321,
0.8825,-0.00701904,
0.883,-0.00656128,
0.8835,-0.0212097,
0.884,-0.0325012,
0.8845,-0.0256348,
0.885,-0.0140381,
0.8855,-0.0126648,
0.886,-0.0195313,
0.8865,-0.0276184,
0.887,-0.0288391,
0.8875,-0.0204468,
0.888,-0.0170898,
0.8885,-0.0267029,
0.889,-0.0332642,
0.8895,-0.0292969,
0.89,-0.0195313,
0.8905,-0.0141907,
0.891,-0.00808716,
0.8915,0.00869751,
0.892,0.0283813,
0.8925,0.0352478,
0.893,0.0239563,
0.8935,0.00686646,
0.894,-0.00305176,
0.8945,-0.00579834,
0.895,-0.000152588,
0.8955,0.0108337,
0.896,0.0212097,
0.8965,0.0305176,
0.897,0.0375366,
0.8975,0.040741,
0.898,0.0408936,
0.8985,0.0416565,
0.899,0.0392151,
0.8995,0.0291443,
0.9,0.00900269,
0.9005,-0.0125122,
0.901,-0.0247192,
0.9015,-0.0239563,
0.902,-0.0227356,
0.9025,-0.0263977,
0.903,-0.0274658,
0.9035,-0.0228882,
0.904,-0.0201416,
0.9045,-0.0205994,
0.905,-0.0158691,
0.9055,-0.0109863,
0.906,-0.0123596,
0.9065,-0.0164795,
0.907,-0.00869751,
0.9075,0.0180054,
0.908,0.0427246,
0.9085,0.0364685,
0.909,0.0050354,
0.9095,-0.0267029,
0.91,-0.0421143,
0.9105,-0.0358582,
0.911,-0.0198364,
0.9115,-0.0134277,
0.912,-0.0137329,
0.9125,-0.0109863,
0.913,-0.00579834,
0.9135,-0.000915527,
0.914,0.000610352,
0.9145,-0.00213623,
0.915,-0.00320435,
0.9155,-0.00442505,
0.916,-0.00686646,
0.9165,-0.00717163,
0.917,-0.00518799,
0.9175,-0.00488281,
0.918,-0.00366211,
0.9185,-0.00350952,
0.919,-0.00350952,
0.9195,-0.00335693,
0.92,-0.00320435,
0.9205,-0.00350952,
0.921,-0.00335693,
0.9215,-0.00320435,
0.922,-0.00305176,
0.9225,-0.00198364,
0.923,-0.00366211,
0.9235,-0.00579834,
0.924,-0.00335693,
0.9245,0.00198364,
0.925,0.00366211,
0.9255,0.00320435,
0.926,0.00137329,
0.9265,0.00350952,
0.927,0.00518799,
0.9275,0.00320435,
0.928,-0.00106812,
0.9285,0.000305176,
0.929,0.00396729,
0.9295,0.00244141,
0.93,-0.00411987,
0.9305,-0.0108337,
0.931,-0.0177002,
0.9315,-0.020752,
0.932,-0.025177,
0.9325,-0.0299072,
0.933,-0.0364685,
0.9335,-0.0366211,
0.934,-0.017395,
0.9345,0.0125122,
0.935,0.0312805,
0.9355,0.0410461,
0.936,0.0434875,
0.9365,0.0344849,
0.937,0.0256348,
0.9375,0.0318909,
0.938,0.0366211,
0.9385,0.0238037,
0.939,0.0050354,
0.9395,-0.00442505,
0.94,-0.00793457,
0.9405,-0.019989,
0.941,-0.0267029,
0.9415,-0.0180054,
0.942,-0.00228882,
0.9425,0.00656128,
0.943,0.00534058,
0.9435,0.0012207,
0.944,0.00564575,
0.9445,0.00854492,
0.945,0.000762939,
0.9455,-0.0062561,
0.946,-0.00213623,
0.9465,0.00793457,
0.947,0.0119019,
0.9475,0.00534058,
0.948,-0.00320435,
0.9485,-0.00946045,
0.949,-0.0143433,
0.9495,-0.0205994,
0.95,-0.0140381,
0.9505,0.00442505,
0.951,0.015564,
0.9515,0.018158,
0.952,0.0190735,
0.9525,0.0241089,
0.953,0.0410461,
0.9535,0.0585938,
0.954,0.0578308,
0.9545,0.0456238,
0.955,0.0283813,
0.9555,0.0209045,
0.956,0.0296021,
0.9565,0.0325012,
0.957,0.00808716,
0.9575,-0.043335,
0.958,-0.0949097,
0.9585,-0.107422,
0.959,-0.0790405,
0.9595,-0.0517273,
0.96,-0.0495911,
0.9605,-0.0622559,
0.961,-0.0617981,
0.9615,-0.0456238,
0.962,-0.0292969,
0.9625,-0.0257874,
0.963,-0.0315857,
0.9635,-0.0291443,
0.964,-0.00564575,
0.9645,0.022583,
0.965,0.0274658,
0.9655,0.00549316,
0.966,-0.0183105,
0.9665,-0.0312805,
0.967,-0.0360107,
0.9675,-0.0340271,
0.968,-0.0247192,
0.9685,-0.00701904,
0.969,0.0114441,
0.9695,0.0169373,
0.97,0.00991821,
0.9705,0.00518799,
0.971,0.0038147,
0.9715,0.0012207,
0.972,-0.00152588,
0.9725,-0.00106812,
0.973,0.000762939,
0.9735,-0.0012207,
0.974,-0.00518799,
0.9745,-0.00808716,
0.975,-0.00564575,
0.9755,-0.0012207,
0.976,-0.00518799,
0.9765,-0.0149536,
0.977,-0.0212097,
0.9775,-0.0215149,
0.978,-0.0157166,
0.9785,-0.00259399,
0.979,0.0062561,
0.9795,0.012207,
0.98,0.0212097,
0.9805,0.0262451,
0.981,0.0263977,
0.9815,0.0262451,
0.982,0.0259399,
0.9825,0.0248718,
0.983,0.0230408,
0.9835,0.0260925,
0.984,0.0286865,
0.9845,0.0212097,
0.985,0.00808716,
0.9855,0,
0.986,-0.000457764,
0.9865,0.00274658,
0.987,0.00457764,
0.9875,0.00930786,
0.988,0.0154114,
0.9885,0.014801,
0.989,0.00854492,
0.9895,0.00335693,
0.99,0.00137329,
0.9905,-0.00106812,
0.991,-0.00244141,
0.9915,-0.00228882,
0.992,0.000915527,
0.9925,0.00350952,
0.993,0.00549316,
0.9935,0.0050354,
0.994,0.00167847,
0.9945,0.00732422,
0.995,0.020752,
0.9955,0.0259399,
0.996,0.0253296,
0.9965,0.0259399,
0.997,0.0241089,
0.9975,0.0102234,
0.998,-0.0280762,
0.9985,-0.0672913,
0.999,-0.0697327,
0.9995,-0.040741,
1,-0.0138855,
1.0005,-0.00152588,
1.001,-0.00213623,
1.0015,-0.0154114,
1.002,-0.0268555,
1.0025,-0.0260925,
1.003,-0.018158,
1.0035,-0.01297,
1.004,-0.0114441,
1.0045,-0.0115967,
1.005,-0.00946045,
1.0055,-0.00915527,
1.006,-0.012207,
1.0065,-0.0134277,
1.007,-0.00732422,
1.0075,0.00305176,
1.008,0.0102234,
1.0085,0.0140381,
1.009,0.01297,
1.0095,0.00549316,
1.01,0.00320435,
1.0105,0.00900269,
1.011,0.0131226,
1.0115,0.0100708,
1.012,0.00350952,
1.0125,-0.00732422,
1.013,-0.0210571,
1.0135,-0.0343323,
1.014,-0.039978,
1.0145,-0.0325012,
1.015,-0.0215149,
1.0155,-0.0106812,
1.016,-0.00457764,
1.0165,-0.00244141,
1.017,-0.00518799,
1.0175,-0.00732422,
1.018,-0.00808716,
1.0185,-0.00717163,
1.019,-0.00366211,
1.0195,0.000305176,
1.02,0.00289917,
1.0205,0.00320435,
1.021,0.00137329,
1.0215,-0.00198364,
1.022,-0.00366211,
1.0225,0.000610352,
1.023,0.00411987,
1.0235,0.00137329,
1.024,-0.00228882,
1.0245,-0.0038147,
1.025,-0.00228882,
1.0255,-0.0012207,
1.026,-0.00289917,
1.0265,-0.01297,
1.027,-0.0241089,
1.0275,-0.0230408,
1.028,-0.0109863,
1.0285,-0.00198364,
1.029,-0.00579834,
1.0295,-0.0140381,
1.03,-0.0189209,
1.0305,-0.015564,
1.031,-0.0088501,
1.0315,-0.00442505,
1.032,0.00549316,
1.0325,0.0242615,
1.033,0.0421143,
1.0335,0.0434875,
1.034,0.0312805,
1.0345,0.0189209,
1.035,0.0158691,
1.0355,0.0134277,
1.036,0.00930786,
1.0365,0.00427246,
1.037,-0.00198364,
1.0375,-0.00686646,
1.038,-0.00717163,
1.0385,-0.00167847,
1.039,0.0120544,
1.0395,0.0247192,
1.04,0.0244141,
1.0405,0.0167847,
1.041,0.0131226,
1.0415,0.0125122,
1.042,0.00839233,
1.0425,0.000610352,
1.043,-0.00762939,
1.0435,-0.0161743,
1.044,-0.0219727,
1.0445,-0.0212097,
1.045,-0.0170898,
1.0455,-0.0114441,
1.046,-0.00442505,
1.0465,0.00152588,
1.047,0.000610352,
1.0475,-0.00366211,
1.048,-0.00335693,
1.0485,0.00442505,
1.049,0.00915527,
1.0495,0.00137329,
1.05,-0.0088501,
1.0505,-0.0119019,
1.051,-0.00701904,
1.0515,-0.00793457,
1.052,-0.0141907,
1.0525,-0.0149536,
1.053,-0.0131226,
1.0535,-0.0137329,
1.054,-0.00946045,
1.0545,0.00228882,
1.055,0.0201416,
1.0555,0.0265503,
1.056,0.0170898,
1.0565,0.00488281,
1.057,-0.00869751,
1.0575,-0.0213623,
1.058,-0.0268555,
1.0585,-0.0282288,
1.059,-0.0300598,
1.0595,-0.0282288,
1.06,-0.0108337,
1.0605,0.0134277,
1.061,0.0247192,
1.0615,0.0215149,
1.062,0.0198364,
1.0625,0.0192261,
1.063,0.0151062,
1.0635,0.00976563,
1.064,0.00457764,
1.0645,-0.000915527,
1.065,-0.00732422,
1.0655,-0.0169373,
1.066,-0.0361633,
1.0665,-0.0537109,
1.067,-0.0564575,
1.0675,-0.0456238,
1.068,-0.0312805,
1.0685,-0.0195313,
1.069,-0.0102234,
1.0695,-0.00579834,
1.07,-0.00610352,
1.0705,-0.00137329,
1.071,0.0131226,
1.0715,0.0276184,
1.072,0.025177,
1.0725,0.00778198,
1.073,-0.00640869,
1.0735,-0.00595093,
1.074,0.00366211,
1.0745,0.00976563,
1.075,0.0062561,
1.0755,0,
1.076,-0.0012207,
1.0765,-0.00335693,
1.077,-0.00396729,
1.0775,-0.00167847,
1.078,0.000762939,
1.0785,0.0012207,
1.079,-0.00106812,
1.0795,-0.00564575,
1.08,-0.0108337,
1.0805,-0.0125122,
1.081,-0.0112915,
1.0815,-0.0105286,
1.082,-0.00595093,
1.0825,0.00564575,
1.083,0.0172424,
1.0835,0.0170898,
1.084,0.00854492,
1.0845,0.00244141,
1.085,0.0012207,
1.0855,0.000457764,
1.086,-0.00198364,
1.0865,-0.00228882,
1.087,-0.000305176,
1.0875,-0.000915527,
1.088,0.000610352,
1.0885,0.00610352,
1.089,0.0120544,
1.0895,0.00869751,
1.09,0.00396729,
1.0905,0.00366211,
1.091,0.0102234,
1.0915,0.0180054,
1.092,0.0250244,
1.0925,0.0241089,
1.093,0.0160217,
1.0935,0.00839233,
1.094,-0.00534058,
1.0945,-0.0210571,
1.095,-0.0263977,
1.0955,-0.0146484,
1.096,-0.00152588,
1.0965,0.000610352,
1.097,-0.00595093,
1.0975,-0.0126648,
1.098,-0.0180054,
1.0985,-0.017395,
1.099,-0.00747681,
1.0995,0.00442505,
1.1,0.0149536,
1.1005,0.0212097,
1.101,0.0158691,
1.1015,0.00411987,
1.102,-0.00289917,
1.1025,0.00305176,
1.103,0.0135803,
1.1035,0.0308228,
1.104,0.0474548,
1.1045,0.0415039,
1.105,0.0163269,
1.1055,-0.0138855,
1.106,-0.032196,
1.1065,-0.0271606,
1.107,-0.0187683,
1.1075,-0.0146484,
1.108,-0.0134277,
1.1085,-0.00854492,
1.109,-0.00976563,
1.1095,-0.0154114,
1.11,-0.0154114,
1.1105,-0.00640869,
1.111,0.00671387,
1.1115,0.0202942,
1.112,0.0350952,
1.1125,0.0444031,
1.113,0.0338745,
1.1135,-0.000610352,
1.114,-0.0271606,
1.1145,-0.0212097,
1.115,-0.00732422,
1.1155,-0.00335693,
1.116,-0.00915527,
1.1165,-0.0238037,
1.117,-0.0444031,
1.1175,-0.0714111,
1.118,-0.0958252,
1.1185,-0.0964355,
1.119,-0.0682068,
1.1195,-0.0288391,
1.12,-0.00549316,
1.1205,-0.00396729,
1.121,-0.00854492,
1.1215,0,
1.122,0.0212097,
1.1225,0.0398254,
1.123,0.0463867,
1.1235,0.0418091,
1.124,0.032196,
1.1245,0.0280762,
1.125,0.0259399,
1.1255,0.0187683,
1.126,0.00823975,
1.1265,-0.00640869,
1.127,-0.0286865,
1.1275,-0.0502014,
1.128,-0.0521851,
1.1285,-0.0354004,
1.129,-0.0141907,
1.1295,0.00320435,
1.13,0.00701904,
1.1305,-0.00137329,
1.131,-0.00839233,
1.1315,-0.00274658,
1.132,0.0138855,
1.1325,0.020752,
1.133,0.000457764,
1.1335,-0.0328064,
1.134,-0.0453186,
1.1345,-0.0341797,
1.135,-0.0305176,
1.1355,-0.0567627,
1.136,-0.075531,
1.1365,-0.0518799,
1.137,-0.00137329,
1.1375,0.0283813,
1.138,0.027771,
1.1385,0.032196,
1.139,0.0514221,
1.1395,0.0613403,
1.14,0.0442505,
1.1405,0.0239563,
1.141,0.0227356,
1.1415,0.0306702,
1.142,0.0349426,
1.1425,0.0306702,
1.143,0.0260925,
1.1435,0.0335693,
1.144,0.0469971,
1.1445,0.0495911,
1.145,0.045166,
1.1455,0.0424194,
1.146,0.0363159,
1.1465,0.0221252,
1.147,0.00610352,
1.1475,-0.010376,
1.148,-0.0410461,
1.1485,-0.0817871,
1.149,-0.0976563,
1.1495,-0.0698853,
1.15,-0.0210571,
1.1505,0.0222778,
1.151,0.0384521,
1.1515,0.0259399,
1.152,0.00305176,
1.1525,-0.0106812,
1.153,-0.01297,
1.1535,-0.01297,
1.154,-0.0202942,
1.1545,-0.0343323,
1.155,-0.0468445,
1.1555,-0.0502014,
1.156,-0.0395203,
1.1565,-0.0202942,
1.157,-0.00350952,
1.1575,0.00930786,
1.158,0.0202942,
1.1585,0.0231934,
1.159,0.014801,
1.1595,-0.00137329,
1.16,-0.00930786,
1.1605,-0.000915527,
1.161,0.0141907,
1.1615,0.0186157,
1.162,0.00259399,
1.1625,-0.0169373,
1.163,-0.0190735,
1.1635,-0.00442505,
1.164,0.00335693,
1.1645,-0.00152588,
1.165,-0.00579834,
1.1655,0.00396729,
1.166,0.0164795,
1.1665,0.0216675,
1.167,0.0216675,
1.1675,0.0157166,
1.168,0.00991821,
1.1685,0.00259399,
1.169,-0.00961304,
1.1695,-0.0140381,
1.17,0.00228882,
1.1705,0.0248718,
1.171,0.027771,
1.1715,0.0216675,
1.172,0.0210571,
1.1725,0.0154114,
1.173,0.00427246,
1.1735,-0.0038147,
1.174,-0.00869751,
1.1745,-0.0146484,
1.175,-0.0218201,
1.1755,-0.0276184,
1.176,-0.0331116,
1.1765,-0.0334167,
1.177,-0.030365,
1.1775,-0.0349426,
1.178,-0.0570679,
1.1785,-0.0866699,
1.179,-0.0973511,
1.1795,-0.0726318,
1.18,-0.0242615,
1.1805,0.0288391,
1.181,0.0642395,
1.1815,0.0709534,
1.182,0.0628662,
1.1825,0.0517273,
1.183,0.0334167,
1.1835,0.0166321,
1.184,0.0271606,
1.1845,0.0502014,
1.185,0.057373,
1.1855,0.0212097,
1.186,-0.0396729,
1.1865,-0.0372314,
1.187,0.0328064,
1.1875,0.0822449,
1.188,0.0759888,
1.1885,0.0572205,
1.189,0.0512695,
1.1895,0.040741,
1.19,0.0198364,
1.1905,0.0138855,
1.191,0.0192261,
1.1915,0.00808716,
1.192,-0.0230408,
1.1925,-0.0506592,
1.193,-0.0686646,
1.1935,-0.0750732,
1.194,-0.0534058,
1.1945,-0.0193787,
1.195,-0.0088501,
1.1955,-0.0386047,
1.196,-0.0621033,
1.1965,-0.0395203,
1.197,-0.0062561,
1.1975,-0.0196838,
1.198,-0.0704956,
1.1985,-0.0918579,
1.199,-0.0613403,
1.1995,-0.0210571,
1.2,0.00274658,
1.2005,0.0160217,
1.201,0.0334167,
1.2015,0.0421143,
1.202,0.0328064,
1.2025,0.00350952,
1.203,-0.0325012,
1.2035,-0.0389099,
1.204,-0.0117493,
1.2045,0.0250244,
1.205,0.0718689,
1.2055,0.113068,
1.206,0.130157,
1.2065,0.13443,
1.207,0.15564,
1.2075,0.21347,
1.208,0.265808,
1.2085,0.249176,
1.209,0.136719,
1.2095,-0.039978,
1.21,-0.182037,
1.2105,-0.174561,
1.211,-0.0706482,
1.2115,-0.0119019,
1.212,-0.0674438,
1.2125,-0.195923,
1.213,-0.32135,
1.2135,-0.38269,
1.214,-0.339813,
1.2145,-0.273438,
1.215,-0.247955,
1.2155,-0.215759,
1.216,-0.163422,
1.2165,-0.116425,
1.217,-0.0546265,
1.2175,0.0169373,
1.218,0.0526428,
1.2185,0.0308228,
1.219,-0.0105286,
1.2195,-0.00320435,
1.22,0.0611877,
1.2205,0.146637,
1.221,0.215912,
1.2215,0.206299,
1.222,0.102692,
1.2225,0.030365,
1.223,0.0410461,
1.2235,0.0540161,
1.224,0.0265503,
1.2245,-0.00534058,
1.225,-0.00396729,
1.2255,0.00854492,
1.226,0.010376,
1.2265,-0.000915527,
1.227,-0.0398254,
1.2275,-0.105743,
1.228,-0.144043,
1.2285,-0.116577,
1.229,-0.0740051,
1.2295,-0.0579834,
1.23,-0.057373,
1.2305,-0.0474548,
1.231,-0.0302124,
1.2315,-0.0143433,
1.232,-0.00228882,
1.2325,0.0117493,
1.233,0.0297546,
1.2335,0.045166,
1.234,0.058136,
1.2345,0.0700378,
1.235,0.0834656,
1.2355,0.106201,
1.236,0.1297,
1.2365,0.118408,
1.237,0.0794983,
1.2375,0.0653076,
1.238,0.0648499,
1.2385,0.0326538,
1.239,-0.0300598,
1.2395,-0.0796509,
1.24,-0.0822449,
1.2405,-0.0567627,
1.241,-0.0338745,
1.2415,-0.0195313,
1.242,-0.00961304,
1.2425,0.000152588,
1.243,0.00991821,
1.2435,0.0184631,
1.244,0.0288391,
1.2445,0.0372314,
1.245,0.0453186,
1.2455,0.0460815,
1.246,0.0421143,
1.2465,0.0587463,
1.247,0.0917053,
1.2475,0.0964355,
1.248,0.0691223,
1.2485,0.0502014,
1.249,0.0263977,
1.2495,-0.0180054,
1.25,-0.0382996,
1.2505,-0.00457764,
1.251,0.0447083,
1.2515,0.0605774,
1.252,0.0514221,
1.2525,0.0495911,
1.253,0.0604248,
1.2535,0.0741577,
1.254,0.0860596,
1.2545,0.0898743,
1.255,0.0538635,
1.2555,-0.0169373,
1.256,-0.0827026,
1.2565,-0.166321,
1.257,-0.217438,
1.2575,-0.146942,
1.258,-0.0384521,
1.2585,-0.00839233,
1.259,-0.0325012,
1.2595,-0.0520325,
1.26,-0.0665283,
1.2605,-0.0872803,
1.261,-0.0788879,
1.2615,-0.035553,
1.262,-0.0088501,
1.2625,0.00335693,
1.263,0.0312805,
1.2635,0.068512,
1.264,0.0802612,
1.2645,0.0532532,
1.265,-0.00579834,
1.2655,-0.0746155,
1.266,-0.110931,
1.2665,-0.083313,
1.267,-0.0317383,
1.2675,-0.00488281,
1.268,-0.0135803,
1.2685,-0.0320435,
1.269,-0.0315857,
1.2695,-0.00137329,
1.27,0.0405884,
1.2705,0.0636292,
1.271,0.0697327,
1.2715,0.0646973,
1.272,0.0489807,
1.2725,0.0367737,
1.273,0.0279236,
1.2735,0.0160217,
1.274,0.000762939,
1.2745,-0.0120544,
1.275,-0.0274658,
1.2755,-0.0511169,
1.276,-0.0854492,
1.2765,-0.110474,
1.277,-0.0970459,
1.2775,-0.055542,
1.278,-0.0244141,
1.2785,-0.0192261,
1.279,-0.0297546,
1.2795,-0.0483704,
1.28,-0.0671387,
1.2805,-0.0901794,
1.281,-0.0971985,
1.2815,-0.0588989,
1.282,0.0250244,
1.2825,0.0741577,
1.283,0.0154114,
1.2835,-0.0657654,
1.284,-0.0495911,
1.2845,0.0514221,
1.285,0.145874,
1.2855,0.211945,
1.286,0.299072,
1.2865,0.384369,
1.287,0.377502,
1.2875,0.276642,
1.288,0.215302,
1.2885,0.278168,
1.289,0.314026,
1.2895,0.15976,
1.29,-0.0787354,
1.2905,-0.203705,
1.291,-0.216675,
1.2915,-0.198822,
1.292,-0.172882,
1.2925,-0.179291,
1.293,-0.239868,
1.2935,-0.287628,
1.294,-0.262299,
1.2945,-0.17746,
1.295,-0.0904846,
1.2955,-0.0265503,
1.296,0.0111389,
1.2965,0.0292969,
1.297,0.0401306,
1.2975,0.0445557,
1.298,0.0363159,
1.2985,0.00900269,
1.299,-0.0212097,
1.2995,-0.0378418,
1.3,-0.0389099,
1.3005,-0.025177,
1.301,-0.00854492,
1.3015,-0.0102234,
1.302,-0.0193787,
1.3025,-0.0177002,
1.303,-0.00167847,
1.3035,0.0311279,
1.304,0.0660706,
1.3045,0.0579834,
1.305,-0.0218201,
1.3055,-0.0843811,
1.306,-0.0682068,
1.3065,-0.0285339,
1.307,-0.0337219,
1.3075,-0.10849,
1.308,-0.163727,
1.3085,-0.103455,
1.309,-0.0126648,
1.3095,0.0172424,
1.31,0.0201416,
1.3105,0.0601196,
1.311,0.119019,
1.3115,0.130157,
1.312,0.0814819,
1.3125,0.0132751,
1.313,-0.0247192,
1.3135,-0.0317383,
1.314,-0.0312805,
1.3145,-0.0276184,
1.315,0.0137329,
1.3155,0.0875854,
1.316,0.131378,
1.3165,0.131226,
1.317,0.140381,
1.3175,0.192566,
1.318,0.262756,
1.3185,0.271759,
1.319,0.178528,
1.3195,0.0489807,
1.32,-0.118256,
1.3205,-0.321503,
1.321,-0.403137,
1.3215,-0.299072,
1.322,-0.147247,
1.3225,-0.0706482,
1.323,-0.0517273,
1.3235,-0.0234985,
1.324,0.0189209,
1.3245,0.0576782,
1.325,0.0961304,
1.3255,0.132294,
1.326,0.167084,
1.3265,0.187531,
1.327,0.128479,
1.3275,-0.0440979,
1.328,-0.209808,
1.3285,-0.258789,
1.329,-0.226898,
1.3295,-0.171509,
1.33,-0.0878906,
1.3305,-0.0177002,
1.331,-0.00717163,
1.3315,-0.0386047,
1.332,-0.0569153,
1.3325,-0.0386047,
1.333,-0.0115967,
1.3335,0.0256348,
1.334,0.0852966,
1.3345,0.144196,
1.335,0.198212,
1.3355,0.247192,
1.336,0.234528,
1.3365,0.148468,
1.337,0.0241089,
1.3375,-0.0616455,
1.338,-0.0645447,
1.3385,-0.0175476,
1.339,0.055542,
1.3395,0.0834656,
1.34,-0.0788879,
1.3405,-0.334167,
1.341,-0.431213,
1.3415,-0.370941,
1.342,-0.26001,
1.3425,-0.136719,
1.343,-0.0128174,
1.3435,0.0592041,
1.344,0.065155,
1.3445,0.0892639,
1.345,0.17395,
1.3455,0.238342,
1.346,0.210419,
1.3465,0.114136,
1.347,0.0401306,
1.3475,-0.0038147,
1.348,-0.0747681,
1.3485,-0.107117,
1.349,-0.0799561,
1.3495,-0.118103,
1.35,-0.224915,
1.3505,-0.294189,
1.351,-0.286102,
1.3515,-0.205841,
1.352,-0.110931,
1.3525,-0.0473022,
1.353,-0.000457764,
1.3535,0.0213623,
1.354,0.0453186,
1.3545,0.0944519,
1.355,0.156555,
1.3555,0.229797,
1.356,0.247345,
1.3565,0.126038,
1.357,-0.0518799,
1.3575,-0.124969,
1.358,-0.0918579,
1.3585,-0.0480652,
1.359,-0.0308228,
1.3595,-0.0219727,
1.36,-0.0306702,
1.3605,-0.0566101,
1.361,-0.032196,
1.3615,0.0257874,
1.362,0.068512,
1.3625,0.12146,
1.363,0.178375,
1.3635,0.189056,
1.364,0.177155,
1.3645,0.187531,
1.365,0.1828,
1.3655,0.127869,
1.366,0.0708008,
1.3665,0.090332,
1.367,0.118866,
1.3675,0.057373,
1.368,-0.0389099,
1.3685,-0.110168,
1.369,-0.138092,
1.3695,-0.0843811,
1.37,-0.0239563,
1.3705,-0.0158691,
1.371,-0.0216675,
1.3715,0.00457764,
1.372,0.0509644,
1.3725,0.0753784,
1.373,0.045929,
1.3735,-0.027771,
1.374,-0.0796509,
1.3745,-0.0932312,
1.375,-0.0965881,
1.3755,-0.0753784,
1.376,-0.0811768,
1.3765,-0.153198,
1.377,-0.195618,
1.3775,-0.120239,
1.378,-0.0213623,
1.3785,0.0134277,
1.379,0.0151062,
1.3795,0.0254822,
1.38,0.0509644,
1.3805,0.0706482,
1.381,0.0843811,
1.3815,0.115356,
1.382,0.152283,
1.3825,0.144653,
1.383,0.0865173,
1.3835,-0.000762939,
1.384,-0.135803,
1.3845,-0.271606,
1.385,-0.30426,
1.3855,-0.235596,
1.386,-0.157318,
1.3865,-0.0842285,
1.387,0.0138855,
1.3875,0.101166,
1.388,0.12619,
1.3885,0.120239,
1.389,0.160065,
1.3895,0.228119,
1.39,0.258942,
1.3905,0.241547,
1.391,0.241699,
1.3915,0.282898,
1.392,0.2948,
1.3925,0.220795,
1.393,0.0476074,
1.3935,-0.230713,
1.394,-0.480347,
1.3945,-0.49469,
1.395,-0.320892,
1.3955,-0.189056,
1.396,-0.141602,
1.3965,-0.109711,
1.397,-0.0675964,
1.3975,-0.0210571,
1.398,0.0111389,
1.3985,0.0224304,
1.399,0.0257874,
1.3995,0.0160217,
1.4,-0.00869751,
1.4005,-0.012207,
1.401,0.0192261,
1.4015,0.0370789,
1.402,-0.00473022,
1.4025,-0.052948,
1.403,-0.0619507,
1.4035,-0.0421143,
1.404,-0.00595093,
1.4045,0.0428772,
1.405,0.0727844,
1.4055,0.0518799,
1.406,0.0213623,
1.4065,0.0344849,
1.407,0.0642395,
1.4075,0.062561,
1.408,0.0413513,
1.4085,0.0422668,
1.409,0.0892639,
1.4095,0.135498,
1.41,0.142059,
1.4105,0.127258,
1.411,0.0813293,
1.4115,0.0216675,
1.412,-0.00289917,
1.4125,0.017395,
1.413,0.0256348,
1.4135,-0.0180054,
1.414,-0.0650024,
1.4145,-0.101471,
1.415,-0.225525,
1.4155,-0.447388,
1.416,-0.525513,
1.4165,-0.374451,
1.417,-0.19928,
1.4175,-0.11673,
1.418,-0.0798035,
1.4185,-0.0486755,
1.419,0.018158,
1.4195,0.164337,
1.42,0.361023,
1.4205,0.499268,
1.421,0.480652,
1.4215,0.357208,
1.422,0.260315,
1.4225,0.171814,
1.423,0.039978,
1.4235,-0.0814819,
1.424,-0.180054,
1.4245,-0.215149,
1.425,-0.131073,
1.4255,-0.0192261,
1.426,0.0050354,
1.4265,-0.0265503,
1.427,-0.00701904,
1.4275,0.0444031,
1.428,0.0579834,
1.4285,0.0366211,
1.429,0.0288391,
1.4295,0.0344849,
1.43,0.0038147,
1.4305,-0.00640869,
1.431,0.0514221,
1.4315,0.0746155,
1.432,0.00793457,
1.4325,-0.0280762,
1.433,0.0126648,
1.4335,0.00305176,
1.434,-0.078125,
1.4345,-0.0895691,
1.435,-0.0218201,
1.4355,-0.0114441,
1.436,-0.065155,
1.4365,-0.0834656,
1.437,-0.0190735,
1.4375,0.0695801,
1.438,0.110626,
1.4385,0.0712585,
1.439,-0.0241089,
1.4395,-0.0923157,
1.44,-0.142365,
1.4405,-0.19989,
1.441,-0.190887,
1.4415,-0.172424,
1.442,-0.16449,
1.4425,-0.0637817,
1.443,0.0935364,
1.4435,0.161743,
1.444,0.148163,
1.4445,0.19455,
1.445,0.249481,
1.4455,0.133209,
1.446,-0.0411987,
1.4465,-0.0695801,
1.447,-0.0549316,
1.4475,-0.0994873,
1.448,-0.109253,
1.4485,-0.0241089,
1.449,0.0233459,
1.4495,-0.0889587,
1.45,-0.216522,
1.4505,-0.194397,
1.451,-0.0854492,
1.4515,-0.0569153,
1.452,-0.162811,
1.4525,-0.261688,
1.453,-0.183868,
1.4535,0.0244141,
1.454,0.214233,
1.4545,0.281525,
1.455,0.223694,
1.4555,0.144958,
1.456,0.0921631,
1.4565,0.0639343,
1.457,0.0636292,
1.4575,0.0726318,
1.458,0.0733948,
1.4585,0.0552368,
1.459,0.019989,
1.4595,0.0180054,
1.46,0.0640869,
1.4605,0.112305,
1.461,0.128021,
1.4615,0.101013,
1.462,0.0450134,
1.4625,0.0172424,
1.463,0.0541687,
1.4635,0.10376,
1.464,0.0878906,
1.4645,0.017395,
1.465,-0.0544739,
1.4655,-0.118103,
1.466,-0.145721,
1.4665,-0.12558,
1.467,-0.109558,
1.4675,-0.103912,
1.468,-0.0653076,
1.4685,0.012207,
1.469,0.0712585,
1.4695,0.0657654,
1.47,0.0442505,
1.4705,0.037384,
1.471,0.0476074,
1.4715,0.123444,
1.472,0.247192,
1.4725,0.305634,
1.473,0.244598,
1.4735,0.103455,
1.474,-0.0292969,
1.4745,-0.135651,
1.475,-0.23819,
1.4755,-0.308228,
1.476,-0.269623,
1.4765,-0.136261,
1.477,-0.00656128,
1.4775,0.0679016,
1.478,0.10498,
1.4785,0.117188,
1.479,0.0740051,
1.4795,-0.0614929,
1.48,-0.230408,
1.4805,-0.339508,
1.481,-0.369568,
1.4815,-0.32959,
1.482,-0.26474,
1.4825,-0.18158,
1.483,-0.0834656,
1.4835,0.0126648,
1.484,0.0743103,
1.4845,0.0878906,
1.485,0.0834656,
1.4855,0.0831604,
1.486,0.0816345,
1.4865,0.0746155,
1.487,0.0942993,
1.4875,0.144653,
1.488,0.161438,
1.4885,0.129852,
1.489,0.0654602,
1.4895,-0.0288391,
1.49,-0.098877,
1.4905,-0.132446,
1.491,-0.128479,
1.4915,-0.0978088,
1.492,-0.0502014,
1.4925,0.00610352,
1.493,0.0506592,
1.4935,0.071106,
1.494,0.0863647,
1.4945,0.105896,
1.495,0.0801086,
1.4955,-0.010376,
1.496,-0.0547791,
1.4965,0.00198364,
1.497,0.0700378,
1.4975,0.0846863,
1.498,0.06073,
1.4985,0.0456238,
1.499,0.0683594,
1.4995,0.117645,
1.5,0.128021,
1.5005,0.0559998,
1.501,-0.0331116,
1.5015,-0.065155,
1.502,-0.0216675,
1.5025,0.0740051,
1.503,0.14267,
1.5035,0.161438,
1.504,0.144501,
1.5045,0.0595093,
1.505,-0.0697327,
1.5055,-0.130615,
1.506,-0.11261,
1.5065,-0.118408,
1.507,-0.14801,
1.5075,-0.111542,
1.508,-0.0163269,
1.5085,0.0521851,
1.509,0.0299072,
1.5095,-0.0369263,
1.51,-0.0906372,
1.5105,-0.114136,
1.511,-0.0872803,
1.5115,-0.0215149,
1.512,-0.00854492,
1.5125,-0.115662,
1.513,-0.220184,
1.5135,-0.187683,
1.514,-0.0942993,
1.5145,-0.00366211,
1.515,0.0688171,
1.5155,0.122223,
1.516,0.162964,
1.5165,0.170898,
1.517,0.134888,
1.5175,0.10849,
1.518,0.137939,
1.5185,0.174866,
1.519,0.175934,
1.5195,0.146179,
1.52,0.115967,
1.5205,0.0921631,
1.521,0.0486755,
1.5215,-0.0141907,
1.522,-0.0595093,
1.5225,-0.0450134,
1.523,0.00488281,
1.5235,0.0404358,
1.524,0.0444031,
1.5245,0.0294495,
1.525,0.0386047,
1.5255,0.0469971,
1.526,-0.0169373,
1.5265,-0.111237,
1.527,-0.120697,
1.5275,-0.0653076,
1.528,-0.0248718,
1.5285,-0.0666809,
1.529,-0.113373,
1.5295,-0.0769043,
1.53,-0.0880432,
1.5305,-0.171814,
1.531,-0.136871,
1.5315,-0.00778198,
1.532,0.0245667,
1.5325,-0.0442505,
1.533,-0.0959778,
1.5335,-0.101013,
1.534,-0.0854492,
1.5345,-0.0453186,
1.535,-0.0108337,
1.5355,-0.0761414,
1.536,-0.193939,
1.5365,-0.217743,
1.537,-0.120087,
1.5375,0.0218201,
1.538,0.146027,
1.5385,0.243683,
1.539,0.289612,
1.5395,0.224609,
1.54,0.131531,
1.5405,0.100708,
1.541,0.0317383,
1.5415,-0.0691223,
1.542,-0.0793457,
1.5425,-0.0358582,
1.543,-0.0135803,
1.5435,-0.0242615,
1.544,-0.0195313,
1.5445,0.019989,
1.545,0.0184631,
1.5455,-0.0175476,
1.546,-0.0578308,
1.5465,-0.128784,
1.547,-0.156555,
1.5475,-0.0845337,
1.548,0.00350952,
1.5485,0.0515747,
1.549,0.0865173,
1.5495,0.0970459,
1.55,0.0363159,
1.5505,-0.0320435,
1.551,-0.0508118,
1.5515,-0.0602722,
1.552,-0.0875854,
1.5525,-0.122986,
1.553,-0.12207,
1.5535,-0.0720215,
1.554,-0.0183105,
1.5545,0.00411987,
1.555,0.0126648,
1.5555,0.0498962,
1.556,0.0790405,
1.5565,0.0645447,
1.557,0.0750732,
1.5575,0.134277,
1.558,0.162964,
1.5585,0.0939941,
1.559,0.000305176,
1.5595,-0.0294495,
1.56,-0.0398254,
1.5605,-0.115967,
1.561,-0.251312,
1.5615,-0.333252,
1.562,-0.28183,
1.5625,-0.127716,
1.563,0.0111389,
1.5635,0.00671387,
1.564,-0.109711,
1.5645,-0.106964,
1.565,0.0430298,
1.5655,0.232697,
1.566,0.410614,
1.5665,0.445709,
1.567,0.271454,
1.5675,0.0805664,
1.568,0.0669861,
1.5685,0.129395,
1.569,0.0990295,
1.5695,0.0100708,
1.57,-0.0428772,
1.5705,-0.0592041,
1.571,-0.0234985,
1.5715,0.0628662,
1.572,0.136871,
1.5725,0.100403,
1.573,-0.0737,
1.5735,-0.176086,
1.574,-0.120544,
1.5745,-0.0340271,
1.575,0.00900269,
1.5755,-0.00488281,
1.576,-0.0164795,
1.5765,0.00427246,
1.577,0.0250244,
1.5775,0.0465393,
1.578,0.0444031,
1.5785,-0.0372314,
1.579,-0.12207,
1.5795,-0.107269,
1.58,-0.0306702,
1.5805,0.0360107,
1.581,0.0798035,
1.5815,0.100708,
1.582,0.0924683,
1.5825,0.0628662,
1.583,0.0741577,
1.5835,0.147705,
1.584,0.211182,
1.5845,0.211029,
1.585,0.15625,
1.5855,0.0608826,
1.586,0.017395,
1.5865,0.0775146,
1.587,0.113983,
1.5875,0.0314331,
1.588,-0.0564575,
1.5885,-0.0476074,
1.589,-0.0215149,
1.5895,-0.0500488,
1.59,-0.108795,
1.5905,-0.186615,
1.591,-0.23056,
1.5915,-0.189362,
1.592,-0.0643921,
1.5925,0.0926208,
1.593,0.169067,
1.5935,0.0842285,
1.594,-0.107574,
1.5945,-0.26413,
1.595,-0.345612,
1.5955,-0.368652,
1.596,-0.351868,
1.5965,-0.303497,
1.597,-0.281067,
1.5975,-0.276031,
1.598,-0.240631,
1.5985,-0.189972,
1.599,-0.127563,
1.5995,-0.0184631,
1.6,0.0268555,
1.6005,-0.0311279,
1.601,-0.0721741,
1.6015,-0.027771,
1.602,0.0959778,
1.6025,0.231018,
1.603,0.322571,
1.6035,0.307007,
1.604,0.0987244,
1.6045,-0.184174,
1.605,-0.323486,
1.6055,-0.308228,
1.606,-0.238037,
1.6065,-0.165253,
1.607,-0.129852,
1.6075,-0.144958,
1.608,-0.0926208,
1.6085,0.0939941,
1.609,0.319977,
1.6095,0.423279,
1.61,0.292969,
1.6105,0.0619507,
1.611,0.0408936,
1.6115,0.18158,
1.612,0.228119,
1.6125,0.175476,
1.613,0.170441,
1.6135,0.16922,
1.614,0.111084,
1.6145,0.0920105,
1.615,0.159607,
1.6155,0.22644,
1.616,0.189209,
1.6165,0.0770569,
1.617,-0.00823975,
1.6175,-0.0512695,
1.618,-0.0836182,
1.6185,-0.0628662,
1.619,-0.0450134,
1.6195,-0.115356,
1.62,-0.115509,
1.6205,0.00595093,
1.621,0.065155,
1.6215,0.0558472,
1.622,0.0999451,
1.6225,0.162506,
1.623,0.0740051,
1.6235,-0.157013,
1.624,-0.341797,
1.6245,-0.294952,
1.625,-0.0982666,
1.6255,0.0224304,
1.626,0.0566101,
1.6265,0.0404358,
1.627,0.00213623,
1.6275,-0.00198364,
1.628,0.0332642,
1.6285,-0.00961304,
1.629,-0.155334,
1.6295,-0.252686,
1.63,-0.209656,
1.6305,-0.11795,
1.631,-0.106506,
1.6315,-0.128021,
1.632,-0.0959778,
1.6325,-0.0697327,
1.633,-0.134888,
1.6335,-0.164032,
1.634,-0.0398254,
1.6345,0.100098,
1.635,0.102692,
1.6355,0.0271606,
1.636,0.068512,
1.6365,0.167999,
1.637,0.176239,
1.6375,0.141144,
1.638,0.0738525,
1.6385,-0.00808716,
1.639,0.0500488,
1.6395,0.190887,
1.64,0.288086,
1.6405,0.350952,
1.641,0.293579,
1.6415,0.030365,
1.642,-0.222015,
1.6425,-0.250702,
1.643,-0.170135,
1.6435,-0.0793457,
1.644,0.00518799,
1.6445,0.0675964,
1.645,0.0947571,
1.6455,0.103455,
1.646,0.142822,
1.6465,0.166016,
1.647,0.100861,
1.6475,-0.0184631,
1.648,-0.132599,
1.6485,-0.218353,
1.649,-0.216827,
1.6495,-0.141754,
1.65,-0.101929,
1.6505,-0.152435,
1.651,-0.184479,
1.6515,-0.0512695,
1.652,0.189209,
1.6525,0.282745,
1.653,0.184326,
1.6535,0.080719,
1.654,0.0605774,
1.6545,0.0392151,
1.655,-0.0193787,
1.6555,-0.0468445,
1.656,-0.0566101,
1.6565,-0.100861,
1.657,-0.146637,
1.6575,-0.167999,
1.658,-0.205688,
1.6585,-0.248108,
1.659,-0.211182,
1.6595,-0.170746,
1.66,-0.166779,
1.6605,-0.113678,
1.661,-0.0294495,
1.6615,-0.00900269,
1.662,-0.0508118,
1.6625,-0.0691223,
1.663,-0.0190735,
1.6635,0.0643921,
1.664,0.134888,
1.6645,0.192719,
1.665,0.167999,
1.6655,0.00991821,
1.666,-0.0663757,
1.6665,-0.00656128,
1.667,0.00640869,
1.6675,0.00686646,
1.668,0.10788,
1.6685,0.274506,
1.669,0.367279,
1.6695,0.31311,
1.67,0.223999,
1.6705,0.204315,
1.671,0.253601,
1.6715,0.326691,
1.672,0.420074,
1.6725,0.499725,
1.673,0.35202,
1.6735,-0.0393677,
1.674,-0.3862,
1.6745,-0.467682,
1.675,-0.429535,
1.6755,-0.391846,
1.676,-0.274353,
1.6765,-0.101624,
1.677,-0.0935364,
1.6775,-0.23941,
1.678,-0.222626,
1.6785,-0.0636292,
1.679,-0.0917053,
1.6795,-0.274506,
1.68,-0.251923,
1.6805,-0.0431824,
1.681,0.0959778,
1.6815,0.0723267,
1.682,-0.0285339,
1.6825,-0.0463867,
1.683,0.0311279,
1.6835,0.0942993,
1.684,0.172119,
1.6845,0.316162,
1.685,0.404053,
1.6855,0.296173,
1.686,0.126495,
1.6865,0.04776,
1.687,0.0112915,
1.6875,-0.00762939,
1.688,-0.0274658,
1.6885,-0.106506,
1.689,-0.236359,
1.6895,-0.382843,
1.69,-0.455322,
1.6905,-0.401001,
1.691,-0.304108,
1.6915,-0.241241,
1.692,-0.211487,
1.6925,-0.249023,
1.693,-0.303802,
1.6935,-0.261078,
1.694,-0.123749,
1.6945,0.0444031,
1.695,0.151825,
1.6955,0.139618,
1.696,0.157623,
1.6965,0.30304,
1.697,0.406036,
1.6975,0.335541,
1.698,0.180206,
1.6985,0.0930786,
1.699,0.096283,
1.6995,0.118561,
1.7,0.092926,
1.7005,-0.00320435,
1.701,-0.0683594,
1.7015,-0.00564575,
1.702,0.0804138,
1.7025,0.131989,
1.703,0.164032,
1.7035,0.114746,
1.704,0.0204468,
1.7045,-0.0213623,
1.705,0.0152588,
1.7055,0.0517273,
1.706,0.025177,
1.7065,-0.0361633,
1.707,-0.10849,
1.7075,-0.167084,
1.708,-0.197601,
1.7085,-0.190887,
1.709,-0.120544,
1.7095,-0.019989,
1.71,0.0515747,
1.7105,0.0921631,
1.711,0.0993347,
1.7115,0.0602722,
1.712,0.00137329,
1.7125,-0.0352478,
1.713,-0.0273132,
1.7135,0.000610352,
1.714,-0.0238037,
1.7145,-0.0915527,
1.715,-0.0944519,
1.7155,-0.0311279,
1.716,0.0791931,
1.7165,0.233307,
1.717,0.304413,
1.7175,0.175629,
1.718,-0.0062561,
1.7185,-0.0801086,
1.719,-0.0558472,
1.7195,0.000305176,
1.72,0.0126648,
1.7205,-0.0692749,
1.721,-0.0949097,
1.7215,0.0138855,
1.722,0.085907,
1.7225,0.0323486,
1.723,-0.125885,
1.7235,-0.325775,
1.724,-0.370483,
1.7245,-0.213776,
1.725,-0.0544739,
1.7255,-0.0201416,
1.726,-0.102081,
1.7265,-0.19043,
1.727,-0.131226,
1.7275,0.0909424,
1.728,0.240936,
1.7285,0.272522,
1.729,0.304108,
1.7295,0.229034,
1.73,-0.00640869,
1.7305,-0.167847,
1.731,-0.236969,
1.7315,-0.320282,
1.732,-0.260468,
1.7325,0.03479,
1.733,0.265198,
1.7335,0.258636,
1.734,0.144806,
1.7345,0.0993347,
1.735,0.116425,
1.7355,0.0791931,
1.736,-0.0378418,
1.7365,-0.131683,
1.737,-0.124512,
1.7375,-0.0909424,
1.738,-0.0790405,
1.7385,-0.0244141,
1.739,0.0956726,
1.7395,0.202789,
1.74,0.206451,
1.7405,0.137482,
1.741,0.10788,
1.7415,0.0880432,
1.742,-0.00854492,
1.7425,-0.0869751,
1.743,-0.128937,
1.7435,-0.194855,
1.744,-0.200806,
1.7445,-0.0767517,
1.745,0.124817,
1.7455,0.265961,
1.746,0.249634,
1.7465,0.199738,
1.747,0.285797,
1.7475,0.402527,
1.748,0.419159,
1.7485,0.357666,
1.749,0.164642,
1.7495,-0.0593567,
1.75,-0.101624,
1.7505,-0.0434875,
1.751,-0.0622559,
1.7515,-0.136414,
1.752,-0.183411,
1.7525,-0.203247,
1.753,-0.219879,
1.7535,-0.245972,
1.754,-0.283508,
1.7545,-0.263977,
1.755,-0.137634,
1.7555,0.0158691,
1.756,0.0486755,
1.7565,0.00442505,
1.757,0.0238037,
1.7575,0.100403,
1.758,0.152588,
1.7585,0.124664,
1.759,-0.0169373,
1.7595,-0.154266,
1.76,-0.153046,
1.7605,-0.0808716,
1.761,-0.0556946,
1.7615,-0.104218,
1.762,-0.148163,
1.7625,-0.105286,
1.763,-0.0296021,
1.7635,-0.0382996,
1.764,-0.108643,
1.7645,-0.113525,
1.765,-0.0538635,
1.7655,-0.0512695,
1.766,-0.107727,
1.7665,-0.0973511,
1.767,-0.0393677,
1.7675,-0.0527954,
1.768,-0.13916,
1.7685,-0.15274,
1.769,-0.0390625,
1.7695,0.0834656,
1.77,0.102386,
1.7705,-0.0344849,
1.771,-0.288544,
1.7715,-0.446472,
1.772,-0.307007,
1.7725,0.0180054,
1.773,0.260468,
1.7735,0.341797,
1.774,0.279999,
1.7745,0.135193,
1.775,0.025177,
1.7755,-0.0210571,
1.776,-0.0198364,
1.7765,0.0572205,
1.777,0.212097,
1.7775,0.339813,
1.778,0.264587,
1.7785,0.0517273,
1.779,-0.0285339,
1.7795,0.0213623,
1.78,0.0216675,
1.7805,0.00564575,
1.781,0.0947571,
1.7815,0.220184,
1.782,0.22049,
1.7825,0.15625,
1.783,0.127563,
1.7835,0.102997,
1.784,0.059967,
1.7845,0.00839233,
1.785,-0.0511169,
1.7855,-0.0566101,
1.786,0.0286865,
1.7865,0.104675,
1.787,0.103607,
1.7875,0.0865173,
1.788,0.124969,
1.7885,0.16037,
1.789,0.143433,
1.7895,0.101013,
1.79,0.117188,
1.7905,0.200348,
1.791,0.269623,
1.7915,0.213776,
1.792,0.0280762,
1.7925,-0.162201,
1.793,-0.30014,
1.7935,-0.366364,
1.794,-0.340729,
1.7945,-0.318146,
1.795,-0.309448,
1.7955,-0.241089,
1.796,-0.147858,
1.7965,-0.0796509,
1.797,-0.0697327,
1.7975,-0.173492,
1.798,-0.283051,
1.7985,-0.223846,
1.799,-0.0793457,
1.7995,0.0187683,
1.8,0.00671387,
1.8005,-0.194702,
1.801,-0.470886,
1.8015,-0.54184,
1.802,-0.40329,
1.8025,-0.218201,
1.803,-0.063324,
1.8035,0.0505066,
1.804,0.16571,
1.8045,0.311127,
1.805,0.408173,
1.8055,0.395203,
1.806,0.315399,
1.8065,0.210114,
1.807,0.0195313,
1.8075,-0.218811,
1.808,-0.314941,
1.8085,-0.169678,
1.809,0.0389099,
1.8095,0.169678,
1.81,0.249634,
1.8105,0.267792,
1.811,0.19928,
1.8115,0.11261,
1.812,0.105743,
1.8125,0.117493,
1.813,0.0558472,
1.8135,0.0276184,
1.814,0.101166,
1.8145,0.189362,
1.815,0.227814,
1.8155,0.206604,
1.816,0.154877,
1.8165,0.098877,
1.817,0.0280762,
1.8175,-0.100708,
1.818,-0.204315,
1.8185,-0.149231,
1.819,0.0209045,
1.8195,0.123291,
1.82,0.101013,
1.8205,0.0276184,
1.821,-0.0187683,
1.8215,-0.0753784,
1.822,-0.198975,
1.8225,-0.276642,
1.823,-0.243683,
1.8235,-0.202179,
1.824,-0.17807,
1.8245,-0.176849,
1.825,-0.183563,
1.8255,-0.18158,
1.826,-0.214386,
1.8265,-0.28244,
1.827,-0.321198,
1.8275,-0.300751,
1.828,-0.25116,
1.8285,-0.205078,
1.829,-0.110779,
1.8295,0.00137329,
1.83,0.0375366,
1.8305,0.0268555,
1.831,0.0897217,
1.8315,0.253601,
1.832,0.409241,
1.8325,0.437317,
1.833,0.372162,
1.8335,0.30777,
1.834,0.282288,
1.8345,0.307312,
1.835,0.318146,
1.8355,0.268097,
1.836,0.137939,
1.8365,-0.0767517,
1.837,-0.232849,
1.8375,-0.21286,
1.838,-0.0854492,
1.8385,-0.0411987,
1.839,-0.0819397,
1.8395,-0.0764465,
1.84,-0.0814819,
1.8405,-0.175781,
1.841,-0.232544,
1.8415,-0.1651,
1.842,-0.0648499,
1.8425,0.00564575,
1.843,0.0891113,
1.8435,0.174408,
1.844,0.19989,
1.8445,0.186768,
1.845,0.164642,
1.8455,0.0839233,
1.846,-0.00717163,
1.8465,0.0437927,
1.847,0.151672,
1.8475,0.144653,
1.848,0.0323486,
1.8485,-0.0575256,
1.849,-0.0527954,
1.8495,0.022583,
1.85,0.0688171,
1.8505,0.00274658,
1.851,-0.154266,
1.8515,-0.288391,
1.852,-0.273438,
1.8525,-0.147705,
1.853,-0.0393677,
1.8535,-0.0114441,
1.854,-0.00717163,
1.8545,0.000610352,
1.855,-0.0161743,
1.8555,0.0299072,
1.856,0.177612,
1.8565,0.25528,
1.857,0.145416,
1.8575,-0.0569153,
1.858,-0.118103,
1.8585,-0.0610352,
1.859,-0.0424194,
1.8595,-0.0701904,
1.86,-0.140533,
1.8605,-0.242767,
1.861,-0.198212,
1.8615,0.0515747,
1.862,0.368652,
1.8625,0.588379,
1.863,0.540924,
1.8635,0.246582,
1.864,-0.0175476,
1.8645,-0.075531,
1.865,-0.0837708,
1.8655,-0.230713,
1.866,-0.430145,
1.8665,-0.453033,
1.867,-0.314178,
1.8675,-0.151825,
1.868,-0.0692749,
1.8685,-0.00137329,
1.869,0.102386,
1.8695,0.178375,
1.87,0.228882,
1.8705,0.295563,
1.871,0.331268,
1.8715,0.294495,
1.872,0.242004,
1.8725,0.211792,
1.873,0.196838,
1.8735,0.15564,
1.874,0.0146484,
1.8745,-0.216522,
1.875,-0.491943,
1.8755,-0.664673,
1.876,-0.559387,
1.8765,-0.263519,
1.877,-0.0138855,
1.8775,0.0424194,
1.878,-0.0411987,
1.8785,-0.085144,
1.879,-0.0488281,
1.8795,-0.0669861,
1.88,-0.149536,
1.8805,-0.190735,
1.881,-0.186005,
1.8815,-0.183105,
1.882,-0.13092,
1.8825,-0.0311279,
1.883,-0.00289917,
1.8835,-0.0776672,
1.884,-0.171661,
1.8845,-0.204163,
1.885,-0.130768,
1.8855,0.025177,
1.886,0.10788,
1.8865,0.0648499,
1.887,0.0291443,
1.8875,0.134888,
1.888,0.344696,
1.8885,0.44632,
1.889,0.338135,
1.8895,0.20813,
1.89,0.182037,
1.8905,0.228729,
1.891,0.282745,
1.8915,0.243378,
1.892,0.0624084,
1.8925,-0.0788879,
1.893,-0.0692749,
1.8935,-0.0375366,
1.894,-0.0862122,
1.8945,-0.165558,
1.895,-0.184479,
1.8955,-0.173798,
1.896,-0.210419,
1.8965,-0.317688,
1.897,-0.445862,
1.8975,-0.430145,
1.898,-0.172272,
1.8985,0.215759,
1.899,0.46463,
1.8995,0.41275,
1.9,0.20874,
1.9005,0.0689697,
1.901,0.0645447,
1.9015,0.0982666,
1.902,0.0517273,
1.9025,-0.0418091,
1.903,-0.0761414,
1.9035,-0.0537109,
1.904,-0.0135803,
1.9045,0.0520325,
1.905,0.11734,
1.9055,0.147552,
1.906,0.139313,
1.9065,0.113831,
1.907,0.0817871,
1.9075,0.0834656,
1.908,0.0953674,
1.9085,0.0350952,
1.909,-0.0511169,
1.9095,-0.101318,
1.91,-0.12207,
1.9105,-0.113678,
1.911,-0.102081,
1.9115,-0.104065,
1.912,-0.0996399,
1.9125,-0.0592041,
1.913,0.0172424,
1.9135,0.0805664,
1.914,0.09552,
1.9145,0.0900269,
1.915,0.124512,
1.9155,0.208282,
1.916,0.248718,
1.9165,0.170593,
1.917,0.0505066,
1.9175,-0.0254822,
1.918,-0.0471497,
1.9185,-0.0158691,
1.919,-0.00106812,
1.9195,-0.0726318,
1.92,-0.144653,
1.9205,-0.188446,
1.921,-0.207062,
1.9215,-0.165253,
1.922,-0.135803,
1.9225,-0.21347,
1.923,-0.22171,
1.9235,-0.0341797,
1.924,0.0982666,
1.9245,0.0038147,
1.925,-0.0756836,
1.9255,0.0639343,
1.926,0.267181,
1.9265,0.337524,
1.927,0.296173,
1.9275,0.169525,
1.928,-0.0262451,
1.9285,-0.187531,
1.929,-0.206146,
1.9295,-0.187073,
1.93,-0.263672,
1.9305,-0.341492,
1.931,-0.32486,
1.9315,-0.263519,
1.932,-0.195923,
1.9325,-0.130005,
1.933,-0.0820923,
1.9335,-0.0460815,
1.934,-0.0170898,
1.9345,-0.00396729,
1.935,0.00457764,
1.9355,0.0292969,
1.936,0.0480652,
1.9365,0.0196838,
1.937,-0.0457764,
1.9375,-0.121765,
1.938,-0.151825,
1.9385,-0.100098,
1.939,0.0382996,
1.9395,0.224152,
1.94,0.359802,
1.9405,0.366821,
1.941,0.235443,
1.9415,0.0914001,
1.942,0.0387573,
1.9425,0.0868225,
1.943,0.0802612,
1.9435,-0.0543213,
1.944,-0.11322,
1.9445,-0.00686646,
1.945,0.104065,
1.9455,0.123444,
1.946,0.0759888,
1.9465,0.03479,
1.947,0.0357056,
1.9475,0.0479126,
1.948,0.0663757,
1.9485,0.152283,
1.949,0.24704,
1.9495,0.293427,
1.95,0.329437,
1.9505,0.313873,
1.951,0.143585,
1.9515,-0.101929,
1.952,-0.220184,
1.9525,-0.222778,
1.953,-0.242157,
1.9535,-0.292053,
1.954,-0.374451,
1.9545,-0.489197,
1.955,-0.510712,
1.9555,-0.413055,
1.956,-0.263672,
1.9565,-0.111694,
1.957,-0.00961304,
1.9575,0.0209045,
1.958,0.0338745,
1.9585,0.0701904,
1.959,0.150757,
1.9595,0.200348,
1.96,0.182037,
1.9605,0.137329,
1.961,0.121155,
1.9615,0.155182,
1.962,0.200653,
1.9625,0.22995,
1.963,0.227966,
1.9635,0.177155,
1.964,0.135651,
1.9645,0.191345,
1.965,0.258331,
1.9655,0.241241,
1.966,0.161896,
1.9665,0.0125122,
1.967,-0.150909,
1.9675,-0.155487,
1.968,0.043335,
1.9685,0.2565,
1.969,0.260925,
1.9695,-0.01297,
1.97,-0.350189,
1.9705,-0.457306,
1.971,-0.318451,
1.9715,-0.16861,
1.972,-0.126495,
1.9725,-0.09552,
1.973,-0.0195313,
1.9735,0.0372314,
1.974,0.0959778,
1.9745,0.174866,
1.975,0.171356,
1.9755,-0.00579834,
1.976,-0.2771,
1.9765,-0.384064,
1.977,-0.229034,
1.9775,-0.0250244,
1.978,0.0305176,
1.9785,-0.0228882,
1.979,-0.032959,
1.9795,0.0709534,
1.98,0.171967,
1.9805,0.153198,
1.981,0.0602722,
1.9815,-0.0340271,
1.982,-0.11673,
1.9825,-0.205841,
1.983,-0.280304,
1.9835,-0.323029,
1.984,-0.346222,
1.9845,-0.302429,
1.985,-0.172424,
1.9855,-0.0282288,
1.986,0.017395,
1.9865,-0.0830078,
1.987,-0.144196,
1.9875,-0.0396729,
1.988,0.121613,
1.9885,0.275116,
1.989,0.346069,
1.9895,0.303192,
1.99,0.222626,
1.9905,0.166473,
1.991,0.143585,
1.9915,0.135651,
1.992,0.129395,
1.9925,0.159302,
1.993,0.199585,
1.9935,0.174408,
1.994,0.132141,
1.9945,0.114288,
1.995,0.0552368,
1.9955,-0.0956726,
1.996,-0.246429,
1.9965,-0.263519,
1.997,-0.12619,
1.9975,0.0790405,
1.998,0.173492,
1.9985,0.151215,
1.999,0.195313,
1.9995,0.305176,
2,0.370026,
2.0005,0.372772,
2.001,0.237427,
2.0015,-0.0253296,
2.002,-0.196228,
2.0025,-0.104828,
2.003,0.18631,
2.0035,0.354462,
2.004,0.193329,
2.0045,-0.110779,
2.005,-0.335083,
2.0055,-0.44632,
2.006,-0.557251,
2.0065,-0.662994,
2.007,-0.657806,
2.0075,-0.512543,
2.008,-0.322876,
2.0085,-0.205078,
2.009,-0.185089,
2.0095,-0.187531,
2.01,-0.142365,
2.0105,-0.0656128,
2.011,0.0274658,
2.0115,0.102234,
2.012,0.107117,
2.0125,0.0895691,
2.013,0.1091,
2.0135,0.0840759,
2.014,-0.0369263,
2.0145,-0.127716,
2.015,-0.0971985,
2.0155,-0.0343323,
2.016,-0.000457764,
2.0165,0.0172424,
2.017,0.0262451,
2.0175,0.040741,
2.018,0.043335,
2.0185,0.0186157,
2.019,-0.042572,
2.0195,-0.0590515,
2.02,0.0242615,
2.0205,0.101471,
2.021,0.136414,
2.0215,0.211334,
2.022,0.343475,
2.0225,0.406647,
2.023,0.346832,
2.0235,0.301514,
2.024,0.317841,
2.0245,0.310364,
2.025,0.19043,
2.0255,-0.0248718,
2.026,-0.240326,
2.0265,-0.369873,
2.027,-0.32486,
2.0275,-0.153198,
2.028,-0.0349426,
2.0285,-0.0500488,
2.029,-0.10788,
2.0295,-0.0968933,
2.03,0.0183105,
2.0305,0.175171,
2.031,0.32074,
2.0315,0.406342,
2.032,0.387573,
2.0325,0.263062,
2.033,0.0708008,
2.0335,-0.0511169,
2.034,-0.0805664,
2.0345,-0.1474,
2.035,-0.222778,
2.0355,-0.209503,
2.036,-0.234985,
2.0365,-0.41626,
2.037,-0.55481,
2.0375,-0.417023,
2.038,-0.128174,
2.0385,0.0793457,
2.039,0.179596,
2.0395,0.198517,
2.04,0.121307,
2.0405,-0.0198364,
2.041,-0.128021,
2.0415,-0.108337,
2.042,0.00595093,
2.0425,0.0840759,
2.043,0.0839233,
2.0435,0.043335,
2.044,0.0254822,
2.0445,0.0798035,
2.045,0.163574,
2.0455,0.191956,
2.046,0.13382,
2.0465,0.0314331,
2.047,-0.0683594,
2.0475,-0.126801,
2.048,-0.10498,
2.0485,-0.0262451,
2.049,-0.00900269,
2.0495,-0.0842285,
2.05,-0.170593,
2.0505,-0.194092,
2.051,-0.154114,
2.0515,-0.0985718,
2.052,-0.0419617,
2.0525,0.0195313,
2.053,0.0463867,
2.0535,0.0325012,
2.054,0.0038147,
2.0545,-0.0473022,
2.055,-0.108948,
2.0555,-0.140076,
2.056,-0.11322,
2.0565,-0.0346375,
2.057,0.0805664,
2.0575,0.223083,
2.058,0.385895,
2.0585,0.517273,
2.059,0.538635,
2.0595,0.463409,
2.06,0.380859,
2.0605,0.378113,
2.061,0.402222,
2.0615,0.331573,
2.062,0.199585,
2.0625,0.0831604,
2.063,0.018158,
2.0635,-0.0488281,
2.064,-0.180511,
2.0645,-0.287933,
2.065,-0.311279,
2.0655,-0.357056,
2.066,-0.446014,
2.0665,-0.466003,
2.067,-0.368958,
2.0675,-0.108185,
2.068,0.205383,
2.0685,0.37735,
2.069,0.375061,
2.0695,0.184631,
2.07,-0.161743,
2.0705,-0.451202,
2.071,-0.541229,
2.0715,-0.441437,
2.072,-0.241852,
2.0725,-0.052948,
2.073,0.0228882,
2.0735,0.000305176,
2.074,-0.0248718,
2.0745,-0.0411987,
2.075,-0.0537109,
2.0755,-0.0518799,
2.076,-0.0354004,
2.0765,-0.01297,
2.077,-0.0112915,
2.0775,-0.00762939,
2.078,0.0180054,
2.0785,0.0143433,
2.079,-0.020752,
2.0795,-0.00762939,
2.08,0.0479126,
2.0805,0.09552,
2.081,0.124969,
2.0815,0.137634,
2.082,0.117188,
2.0825,0.0875854,
2.083,0.0250244,
2.0835,-0.0944519,
2.084,-0.189514,
2.0845,-0.201569,
2.085,-0.168915,
2.0855,-0.107117,
2.086,-0.0141907,
2.0865,0.0506592,
2.087,0.0695801,
2.0875,0.0782776,
2.088,0.0921631,
2.0885,0.0746155,
2.089,0.0195313,
2.0895,-0.0436401,
2.09,-0.0660706,
2.0905,-0.0140381,
2.091,0.065155,
2.0915,0.107422,
2.092,0.0912476,
2.0925,0.0630188,
2.093,0.0582886,
2.0935,0.0476074,
2.094,0.032959,
2.0945,0.0338745,
2.095,0.00152588,
2.0955,-0.0674438,
2.096,-0.0924683,
2.0965,-0.0352478,
2.097,0.0556946,
2.0975,0.147858,
2.098,0.220947,
2.0985,0.232544,
2.099,0.177307,
2.0995,0.100555,
2.1,0.0320435,
2.1005,-0.0132751,
2.101,-0.00198364,
2.1015,0.0260925,
2.102,-0.059967,
2.1025,-0.172424,
2.103,-0.134125,
2.1035,0.00869751,
2.104,0.142059,
2.1045,0.198517,
2.105,0.162201,
2.1055,0.117798,
2.106,0.116577,
2.1065,0.0154114,
2.107,-0.237122,
2.1075,-0.387421,
2.108,-0.284729,
2.1085,-0.0993347,
2.109,-0.0572205,
2.1095,-0.208893,
2.11,-0.406342,
2.1105,-0.445251,
2.111,-0.339966,
2.1115,-0.230713,
2.112,-0.161591,
2.1125,-0.0918579,
2.113,-0.032959,
2.1135,0.0189209,
2.114,0.136261,
2.1145,0.220947,
2.115,0.139618,
2.1155,0.10025,
2.116,0.204163,
2.1165,0.172577,
2.117,-0.027771,
2.1175,-0.157623,
2.118,-0.0697327,
2.1185,0.131073,
2.119,0.28656,
2.1195,0.374298,
2.12,0.404205,
2.1205,0.353851,
2.121,0.249329,
2.1215,0.0865173,
2.122,-0.126801,
2.1225,-0.307007,
2.123,-0.404053,
2.1235,-0.364075,
2.124,-0.193634,
2.1245,-0.0805664,
2.125,-0.0999451,
2.1255,-0.150146,
2.126,-0.153198,
2.1265,-0.0956726,
2.127,-0.0138855,
2.1275,0.0317383,
2.128,0.0178528,
2.1285,-0.0149536,
2.129,0.0285339,
2.1295,0.124969,
2.13,0.169983,
2.1305,0.228119,
2.131,0.322723,
2.1315,0.361786,
2.132,0.252533,
2.1325,0.0488281,
2.133,-0.117035,
2.1335,-0.151062,
2.134,-0.120544,
2.1345,-0.111237,
2.135,-0.117645,
2.1355,-0.10498,
2.136,-0.0819397,
2.1365,-0.0621033,
2.137,-0.0428772,
2.1375,-0.0204468,
2.138,0.00686646,
2.1385,0.0364685,
2.139,0.0354004,
2.1395,-0.00778198,
2.14,-0.0421143,
2.1405,-0.0302124,
2.141,-0.00900269,
2.1415,-0.0238037,
2.142,-0.0779724,
2.1425,-0.158234,
2.143,-0.233459,
2.1435,-0.252228,
2.144,-0.200043,
2.1445,-0.113525,
2.145,-0.0178528,
2.1455,0.0672913,
2.146,0.138855,
2.1465,0.244293,
2.147,0.39444,
2.1475,0.537109,
2.148,0.569763,
2.1485,0.418854,
2.149,0.156555,
2.1495,-0.0575256,
2.15,-0.0875854,
2.1505,-0.0405884,
2.151,-0.0497437,
2.1515,-0.078125,
2.152,-0.146027,
2.1525,-0.242157,
2.153,-0.259399,
2.1535,-0.2005,
2.154,-0.156097,
2.1545,-0.148315,
2.155,-0.115662,
2.1555,-0.0114441,
2.156,0.143127,
2.1565,0.315399,
2.157,0.380096,
2.1575,0.218506,
2.158,0.015564,
2.1585,-0.000915527,
2.159,0.113983,
2.1595,0.181885,
2.16,0.218201,
2.1605,0.159454,
2.161,-0.0556946,
2.1615,-0.2005,
2.162,-0.151672,
2.1625,-0.0784302,
2.163,-0.0894165,
2.1635,-0.152283,
2.164,-0.178833,
2.1645,-0.174866,
2.165,-0.204163,
2.1655,-0.220032,
2.166,-0.166321,
2.1665,-0.0976563,
2.167,-0.0860596,
2.1675,-0.126801,
2.168,-0.163422,
2.1685,-0.172729,
2.169,-0.116577,
2.1695,-0.0650024,
2.17,-0.0944519,
2.1705,-0.09552,
2.171,-0.00457764,
2.1715,0.0794983,
2.172,0.0650024,
2.1725,0.000457764,
2.173,-0.018158,
2.1735,0.0375366,
2.174,0.114136,
2.1745,0.135803,
2.175,0.113373,
2.1755,0.118103,
2.176,0.154572,
2.1765,0.179291,
2.177,0.193787,
2.1775,0.186157,
2.178,0.0958252,
2.1785,-0.0639343,
2.179,-0.183411,
2.1795,-0.17334,
2.18,-0.0468445,
2.1805,0.0596619,
2.181,0.0759888,
2.1815,0.0491333,
2.182,0.0257874,
2.1825,0.0767517,
2.183,0.197296,
2.1835,0.256348,
2.184,0.221252,
2.1845,0.178223,
2.185,0.130615,
2.1855,0.0646973,
2.186,0.00320435,
2.1865,-0.0523376,
2.187,-0.133514,
2.1875,-0.250549,
2.188,-0.349731,
2.1885,-0.366516,
2.189,-0.269775,
2.1895,-0.149384,
2.19,-0.0895691,
2.1905,-0.072937,
2.191,-0.0468445,
2.1915,0.00244141,
2.192,0.0949097,
2.1925,0.218353,
2.193,0.310059,
2.1935,0.301971,
2.194,0.148773,
2.1945,0.0331116,
2.195,0.111847,
2.1955,0.209961,
2.196,0.116577,
2.1965,-0.141296,
2.197,-0.357056,
2.1975,-0.39856,
2.198,-0.297089,
2.1985,-0.153961,
2.199,-0.0624084,
2.1995,-0.0567627,
2.2,-0.0569153,
2.2005,0.0135803,
2.201,0.0949097,
2.2015,0.087738,
2.202,-0.0157166,
2.2025,-0.124512,
2.203,-0.151062,
2.2035,-0.103455,
2.204,-0.0520325,
2.2045,-0.0558472,
2.205,-0.0968933,
2.2055,-0.112,
2.206,-0.100708,
2.2065,-0.0770569,
2.207,-0.0526428,
2.2075,-0.06073,
2.208,-0.0636292,
2.2085,-0.0146484,
2.209,0.0447083,
2.2095,0.0787354,
2.21,0.0939941,
2.2105,0.0518799,
2.211,-0.0575256,
2.2115,-0.110779,
2.212,-0.0656128,
2.2125,-0.0108337,
2.213,0.000762939,
2.2135,-0.00701904,
2.214,0.00198364,
2.2145,0.0300598,
2.215,0.0680542,
2.2155,0.142975,
2.216,0.242157,
2.2165,0.278168,
2.217,0.224915,
2.2175,0.123749,
2.218,0.0630188,
2.2185,0.0901794,
2.219,0.13382,
2.2195,0.136871,
2.22,0.0656128,
2.2205,-0.0872803,
2.221,-0.220337,
2.2215,-0.213623,
2.222,-0.107269,
2.2225,-0.032196,
2.223,-0.0219727,
2.2235,-0.0338745,
2.224,-0.0375366,
2.2245,-0.012207,
2.225,0.0132751,
2.2255,-0.0350952,
2.226,-0.129395,
2.2265,-0.201416,
2.227,-0.185242,
2.2275,-0.0738525,
2.228,0.0732422,
2.2285,0.223694,
2.229,0.337982,
2.2295,0.371857,
2.23,0.39093,
2.2305,0.444641,
2.231,0.47821,
2.2315,0.440979,
2.232,0.32486,
2.2325,0.172272,
2.233,-0.0205994,
2.2335,-0.193787,
2.234,-0.261993,
2.2345,-0.321503,
2.235,-0.393524,
2.2355,-0.438385,
2.236,-0.375671,
2.2365,-0.215607,
2.237,-0.164032,
2.2375,-0.307312,
2.238,-0.394287,
2.2385,-0.258179,
2.239,-0.091095,
2.2395,-0.0189209,
2.24,0.0382996,
2.2405,0.105438,
2.241,0.139771,
2.2415,0.134583,
2.242,0.0991821,
2.2425,0.0508118,
2.243,0.0294495,
2.2435,0.0643921,
2.244,0.119934,
2.2445,0.168457,
2.245,0.203247,
2.2455,0.19928,
2.246,0.158691,
2.2465,0.146637,
2.247,0.167084,
2.2475,0.186615,
2.248,0.157776,
2.2485,0.0637817,
2.249,-0.0572205,
2.2495,-0.189972,
2.25,-0.292664,
2.2505,-0.287933,
2.251,-0.177765,
2.2515,-0.0550842,
2.252,-0.00259399,
2.2525,0.0286865,
2.253,0.116425,
2.2535,0.175018,
2.254,0.0914001,
2.2545,-0.101776,
2.255,-0.159149,
2.2555,-0.0299072,
2.256,0.0582886,
2.2565,-0.0117493,
2.257,-0.118103,
2.2575,-0.153656,
2.258,-0.114746,
2.2585,-0.0566101,
2.259,-0.0450134,
2.2595,-0.0712585,
2.26,-0.123749,
2.2605,-0.209503,
2.261,-0.303192,
2.2615,-0.32074,
2.262,-0.204773,
2.2625,-0.0382996,
2.263,0.0543213,
2.2635,0.0785828,
2.264,0.159302,
2.2645,0.440979,
2.265,0.87616,
2.2655,1.29395,
2.266,1.41983,
2.2665,0.956268,
2.267,0.119934,
2.2675,-0.503845,
2.268,-0.660858,
2.2685,-0.581055,
2.269,-0.549316,
2.2695,-0.602112,
2.27,-0.580292,
2.2705,-0.448151,
2.271,-0.2771,
2.2715,-0.120392,
2.272,-0.0479126,
2.2725,-0.0686646,
2.273,-0.106659,
2.2735,-0.121918,
2.274,-0.0950623,
2.2745,-0.0521851,
2.275,-0.0387573,
2.2755,-0.0372314,
2.276,-0.035553,
2.2765,-0.0570679,
2.277,-0.0816345,
2.2775,-0.0706482,
2.278,-0.0384521,
2.2785,-0.030365,
2.279,-0.0448608,
2.2795,-0.0485229,
2.28,0.00350952,
2.2805,0.102692,
2.281,0.209503,
2.2815,0.26123,
2.282,0.193939,
2.2825,0.0872803,
2.283,0.043335,
2.2835,0.039978,
2.284,0.0227356,
2.2845,0.0050354,
2.285,-0.010376,
2.2855,-0.0259399,
2.286,-0.0375366,
2.2865,-0.0506592,
2.287,-0.0421143,
2.2875,-0.0111389,
2.288,0.0270081,
2.2885,0.0535583,
2.289,0.0512695,
2.2895,0.0257874,
2.29,0.00106812,
2.2905,-0.0108337,
2.291,-0.014801,
2.2915,-0.0219727,
2.292,-0.0149536,
2.2925,0.000152588,
2.293,-0.0137329,
2.2935,-0.0610352,
2.294,-0.0723267,
2.2945,-0.0640869,
2.295,-0.0759888,
2.2955,-0.0666809,
2.296,-0.00350952,
2.2965,0.104523,
2.297,0.281525,
2.2975,0.42572,
2.298,0.38208,
2.2985,0.172272,
2.299,-0.0201416,
2.2995,-0.0228882,
2.3,0.0611877,
2.3005,0.0523376,
2.301,-0.0598145,
2.3015,-0.128021,
2.302,-0.0808716,
2.3025,-0.0337219,
2.303,-0.0537109,
2.3035,-0.0796509,
2.304,-0.0769043,
2.3045,-0.0531006,
2.305,-0.0236511,
2.3055,-0.0244141,
2.306,-0.0747681,
2.3065,-0.13916,
2.307,-0.172729,
2.3075,-0.161133,
2.308,-0.0819397,
2.3085,0.0177002,
2.309,0.0765991,
2.3095,0.11734,
2.31,0.157013,
2.3105,0.190735,
2.311,0.224304,
2.3115,0.232239,
2.312,0.170898,
2.3125,0.0604248,
2.313,-0.0602722,
2.3135,-0.138397,
2.314,-0.135193,
2.3145,-0.0994873,
2.315,-0.117493,
2.3155,-0.15564,
2.316,-0.153046,
2.3165,-0.0941467,
2.317,-0.00900269,
2.3175,0.0317383,
2.318,0.0212097,
2.3185,-0.0154114,
2.319,-0.0518799,
2.3195,-0.0708008,
2.32,-0.153198,
2.3205,-0.355682,
2.321,-0.607605,
2.3215,-0.705414,
2.322,-0.502014,
2.3225,-0.20874,
2.323,-0.0767517,
2.3235,-0.0523376,
2.324,0.0538635,
2.3245,0.2771,
2.325,0.474396,
2.3255,0.490265,
2.326,0.327911,
2.3265,0.153351,
2.327,0.102997,
2.3275,0.154419,
2.328,0.216064,
2.3285,0.212555,
2.329,0.126953,
2.3295,0.022583,
2.33,-0.0309753,
2.3305,-0.00869751,
2.331,0.0450134,
2.3315,0.0846863,
2.332,0.10498,
2.3325,0.11734,
2.333,0.135345,
2.3335,0.166473,
2.334,0.194855,
2.3345,0.198212,
2.335,0.185089,
2.3355,0.193939,
2.336,0.216064,
2.3365,0.140228,
2.337,-0.0805664,
2.3375,-0.262909,
2.338,-0.25116,
2.3385,-0.166779,
2.339,-0.0663757,
2.3395,0.0544739,
2.34,0.0708008,
2.3405,-0.0712585,
2.341,-0.236664,
2.3415,-0.279388,
2.342,-0.238037,
2.3425,-0.183716,
2.343,-0.118713,
2.3435,-0.0346375,
2.344,0.017395,
2.3445,0.0012207,
2.345,-0.0212097,
2.3455,0.0302124,
2.346,0.13092,
2.3465,0.194397,
2.347,0.209961,
2.3475,0.25116,
2.348,0.324554,
2.3485,0.344238,
2.349,0.291748,
2.3495,0.267029,
2.35,0.305023,
2.3505,0.233917,
2.351,0.0306702,
2.3515,-0.128937,
2.352,-0.290222,
2.3525,-0.502014,
2.353,-0.536041,
2.3535,-0.276489,
2.354,0.0556946,
2.3545,0.239258,
2.355,0.338135,
2.3555,0.366821,
2.356,0.108643,
2.3565,-0.317078,
2.357,-0.502319,
2.3575,-0.406647,
2.358,-0.280304,
2.3585,-0.269012,
2.359,-0.310669,
2.3595,-0.281525,
2.36,-0.145264,
2.3605,0.032959,
2.361,0.158844,
2.3615,0.153656,
2.362,-0.0389099,
2.3625,-0.235443,
2.363,-0.235138,
2.3635,-0.176239,
2.364,-0.17334,
2.3645,-0.14267,
2.365,-0.0796509,
2.3655,-0.0393677,
2.366,0.000457764,
2.3665,0.0337219,
2.367,0.0398254,
2.3675,0.0196838,
2.368,0.00198364,
2.3685,0.0108337,
2.369,-0.0222778,
2.3695,-0.134888,
2.37,-0.253296,
2.3705,-0.307007,
2.371,-0.306702,
2.3715,-0.258636,
2.372,-0.148926,
2.3725,-0.00717163,
2.373,0.0949097,
2.3735,0.127869,
2.374,0.152435,
2.3745,0.223389,
2.375,0.319061,
2.3755,0.377197,
2.376,0.373077,
2.3765,0.356445,
2.377,0.450439,
2.3775,0.591431,
2.378,0.573578,
2.3785,0.393219,
2.379,0.206146,
2.3795,0.0718689,
2.38,-0.0514221,
2.3805,-0.123138,
2.381,-0.14328,
2.3815,-0.157471,
2.382,-0.126953,
2.3825,-0.0796509,
2.383,-0.122681,
2.3835,-0.22049,
2.384,-0.187531,
2.3845,0.0111389,
2.385,0.157318,
2.3855,0.15564,
2.386,0.091095,
2.3865,0.0770569,
2.387,0.0592041,
2.3875,-0.0245667,
2.388,-0.0340271,
2.3885,0.0709534,
2.389,0.14801,
2.3895,0.127106,
2.39,0.0184631,
2.3905,-0.122986,
2.391,-0.225067,
2.3915,-0.297852,
2.392,-0.351563,
2.3925,-0.339813,
2.393,-0.266876,
2.3935,-0.21759,
2.394,-0.222931,
2.3945,-0.241089,
2.395,-0.233002,
2.3955,-0.182495,
2.396,-0.129852,
2.3965,-0.109863,
2.397,-0.11734,
2.3975,-0.131836,
2.398,-0.075531,
2.3985,0.0746155,
2.399,0.196991,
2.3995,0.205841,
2.4,0.149231,
2.4005,0.0798035,
2.401,0.00335693,
2.4015,-0.0364685,
2.402,-0.0108337,
2.4025,0.0360107,
2.403,0.0762939,
2.4035,0.0973511,
2.404,0.131073,
2.4045,0.213928,
2.405,0.279999,
2.4055,0.245819,
2.406,0.118713,
2.4065,0.0382996,
2.407,0.0567627,
2.4075,0.0640869,
2.408,-0.00228882,
2.4085,-0.0935364,
2.409,-0.136414,
2.4095,-0.0837708,
2.41,0.0120544,
2.4105,0.0836182,
2.411,0.150909,
2.4115,0.223236,
2.412,0.261383,
2.4125,0.220947,
2.413,0.132904,
2.4135,0.0982666,
2.414,0.114899,
2.4145,0.128937,
2.415,0.116882,
2.4155,0.0364685,
2.416,-0.0683594,
2.4165,-0.110321,
2.417,-0.0735474,
2.4175,0.0161743,
2.418,0.0485229,
2.4185,-0.0511169,
2.419,-0.231781,
2.4195,-0.198212,
2.42,0.0958252,
2.4205,0.334473,
2.421,0.310974,
2.4215,0.145416,
2.422,0.00717163,
2.4225,-0.0602722,
2.423,-0.0944519,
2.4235,-0.168304,
2.424,-0.301666,
2.4245,-0.421143,
2.425,-0.447083,
2.4255,-0.334778,
2.426,-0.134125,
2.4265,0.0164795,
2.427,0.0361633,
2.4275,0.00762939,
2.428,0.0143433,
2.4285,0.0280762,
2.429,-0.0502014,
2.4295,-0.229645,
2.43,-0.300293,
2.4305,-0.17746,
2.431,-0.0500488,
2.4315,-0.040741,
2.432,-0.0660706,
2.4325,-0.0361633,
2.433,0.0282288,
2.4335,0.0878906,
2.434,0.118256,
2.4345,0.0984192,
2.435,0.0697327,
2.4355,0.0450134,
2.436,-0.0195313,
2.4365,-0.0515747,
2.437,-0.00717163,
2.4375,0.0378418,
2.438,0.0543213,
2.4385,0.065155,
2.439,0.0485229,
2.4395,-0.057373,
2.44,-0.161438,
2.4405,-0.105743,
2.441,0.0282288,
2.4415,0.0360107,
2.442,-0.0363159,
2.4425,-0.0663757,
2.443,-0.0894165,
2.4435,-0.130768,
2.444,-0.123596,
2.4445,-0.0640869,
2.445,-0.00534058,
2.4455,0.032196,
2.446,0.0547791,
2.4465,0.0648499,
2.447,0.0585938,
2.4475,0.035553,
2.448,0.00946045,
2.4485,-0.0161743,
2.449,-0.0364685,
2.4495,-0.0413513,
2.45,-0.0238037,
2.4505,-0.012207,
2.451,-0.00442505,
2.4515,0.0263977,
2.452,0.062561,
2.4525,0.0805664,
2.453,0.125732,
2.4535,0.19455,
2.454,0.211334,
2.4545,0.158081,
2.455,0.102234,
2.4555,0.0662231,
2.456,0.0334167,
2.4565,0.0335693,
2.457,0.0239563,
2.4575,-0.0622559,
2.458,-0.093689,
2.4585,0.116577,
2.459,0.365753,
2.4595,0.337677,
2.46,0.0845337,
2.4605,-0.121307,
2.461,-0.0453186,
2.4615,0.298157,
2.462,0.661163,
2.4625,0.862122,
2.463,0.820313,
2.4635,0.604706,
2.464,0.396881,
2.4645,0.0978088,
2.465,-0.279541,
2.4655,-0.504761,
2.466,-0.65033,
2.4665,-0.851746,
2.467,-0.914612,
2.4675,-0.733032,
2.468,-0.506897,
2.4685,-0.410614,
2.469,-0.397949,
2.4695,-0.32074,
2.47,-0.190735,
2.4705,-0.0949097,
2.471,-0.0231934,
2.4715,0.0672913,
2.472,0.11795,
2.4725,0.0727844,
2.473,0.0297546,
2.4735,0.0720215,
2.474,0.106812,
2.4745,0.0559998,
2.475,-0.00564575,
2.4755,-0.0401306,
2.476,-0.0593567,
2.4765,-0.0486755,
2.477,-0.0256348,
2.4775,-0.00732422,
2.478,0.00610352,
2.4785,0.025177,
2.479,0.052948,
2.4795,0.0787354,
2.48,0.0952148,
2.4805,0.080719,
2.481,0.0489807,
2.4815,0.0398254,
2.482,0.0250244,
2.4825,-0.00946045,
2.483,-0.0338745,
2.4835,-0.0469971,
2.484,-0.0801086,
2.4845,-0.150146,
2.485,-0.225677,
2.4855,-0.249481,
2.486,-0.182953,
2.4865,-0.0553894,
2.487,0.0404358,
2.4875,0.0601196,
2.488,0.0746155,
2.4885,0.153046,
2.489,0.273895,
2.4895,0.351715,
2.49,0.317993,
2.4905,0.176392,
2.491,0.0236511,
2.4915,-0.0263977,
2.492,0.0666809,
2.4925,0.214691,
2.493,0.2742,
2.4935,0.183716,
2.494,0.0617981,
2.4945,0.0811768,
2.495,0.25589,
2.4955,0.411835,
2.496,0.330353,
2.4965,-0.0772095,
2.497,-0.470428,
2.4975,-0.4599,
2.498,-0.207977,
2.4985,-0.0273132,
2.499,0.0509644,
2.4995,0.125427,
2.5,0.15686,
2.5005,0.0776672,
2.501,-0.0175476,
2.5015,-0.0265503,
2.502,-0.0317383,
2.5025,-0.143127,
2.503,-0.228577,
2.5035,-0.204315,
2.504,-0.140228,
2.5045,-0.0852966,
2.505,-0.0253296,
2.5055,0.0439453,
2.506,0.08255,
2.5065,0.012207,
2.507,-0.129395,
2.5075,-0.193787,
2.508,-0.148468,
2.5085,-0.110321,
2.509,-0.10849,
2.5095,-0.100708,
2.51,-0.0737,
2.5105,-0.00244141,
2.511,0.0917053,
2.5115,0.137482,
2.512,0.113525,
2.5125,0.0738525,
2.513,0.0469971,
2.5135,0.0244141,
2.514,-0.0178528,
2.5145,-0.0872803,
2.515,-0.136871,
2.5155,-0.141907,
2.516,-0.125427,
2.5165,-0.0694275,
2.517,0.00106812,
2.5175,0.0422668,
2.518,0.0567627,
2.5185,0.0636292,
2.519,0.101013,
2.5195,0.154419,
2.52,0.184784,
2.5205,0.212097,
2.521,0.200348,
2.5215,0.0814819,
2.522,-0.045929,
2.5225,-0.0488281,
2.523,0.0141907,
2.5235,0.000762939,
2.524,-0.123291,
2.5245,-0.239868,
2.525,-0.235748,
2.5255,-0.108185,
2.526,0.0726318,
2.5265,0.205078,
2.527,0.220642,
2.5275,0.149231,
2.528,0.0331116,
2.5285,-0.117493,
2.529,-0.205688,
2.5295,-0.164032,
2.53,-0.0935364,
2.5305,-0.072937,
2.531,-0.071106,
2.5315,-0.0578308,
2.532,-0.0657654,
2.5325,-0.140686,
2.533,-0.214081,
2.5335,-0.175629,
2.534,-0.0668335,
2.5345,-0.00518799,
2.535,-0.0634766,
2.5355,-0.155182,
2.536,-0.0556946,
2.5365,0.290222,
2.537,0.56488,
2.5375,0.537415,
2.538,0.457916,
2.5385,0.528717,
2.539,0.530396,
2.5395,0.332489,
2.54,0.1091,
2.5405,-0.0842285,
2.541,-0.281525,
2.5415,-0.314636,
2.542,-0.198975,
2.5425,-0.180969,
2.543,-0.175476,
2.5435,-0.0440979,
2.544,0.0218201,
2.5445,-0.112762,
2.545,-0.252991,
2.5455,-0.232849,
2.546,-0.162354,
2.5465,-0.150604,
2.547,-0.167389,
2.5475,-0.178375,
2.548,-0.140381,
2.5485,-0.0109863,
2.549,0.113983,
2.5495,0.145569,
2.55,0.118256,
2.5505,0.10498,
2.551,0.106354,
2.5515,0.0874329,
2.552,0.0309753,
2.5525,-0.0320435,
2.553,-0.0408936,
2.5535,-0.0196838,
2.554,-0.0296021,
2.5545,-0.0738525,
2.555,-0.119934,
2.5555,-0.133057,
2.556,-0.170441,
2.5565,-0.296478,
2.557,-0.398102,
2.5575,-0.335236,
2.558,-0.181274,
2.5585,-0.0843811,
2.559,-0.00396729,
2.5595,0.0604248,
2.56,0.0764465,
2.5605,0.202789,
2.561,0.45639,
2.5615,0.626831,
2.562,0.587158,
2.5625,0.342407,
2.563,-0.00213623,
2.5635,-0.168915,
2.564,-0.102081,
2.5645,-0.0669861,
2.565,-0.134735,
2.5655,-0.153198,
2.566,-0.141754,
2.5665,-0.157471,
2.567,-0.147247,
2.5675,-0.112762,
2.568,-0.0814819,
2.5685,-0.0305176,
2.569,0.0694275,
2.5695,0.15152,
2.57,0.149231,
2.5705,0.131989,
2.571,0.146942,
2.5715,0.152893,
2.572,0.155487,
2.5725,0.191498,
2.573,0.233154,
2.5735,0.242462,
2.574,0.185089,
2.5745,0.062561,
2.575,-0.0672913,
2.5755,-0.148926,
2.576,-0.14679,
2.5765,-0.118561,
2.577,-0.105438,
2.5775,-0.0845337,
2.578,-0.0576782,
2.5785,-0.0500488,
2.579,-0.0579834,
2.5795,-0.0733948,
2.58,-0.0949097,
2.5805,-0.0994873,
2.581,-0.0724792,
2.5815,-0.0360107,
2.582,-0.0212097,
2.5825,-0.0366211,
2.583,-0.0706482,
2.5835,-0.121765,
2.584,-0.182953,
2.5845,-0.208588,
2.585,-0.181885,
2.5855,-0.131683,
2.586,-0.104828,
2.5865,-0.0701904,
2.587,0.00656128,
2.5875,0.0865173,
2.588,0.170441,
2.5885,0.24765,
2.589,0.206299,
2.5895,0.00823975,
2.59,-0.118866,
2.5905,-0.0378418,
2.591,0.134277,
2.5915,0.283813,
2.592,0.353088,
2.5925,0.409088,
2.593,0.466309,
2.5935,0.41687,
2.594,0.251007,
2.5945,0.0466919,
2.595,-0.146942,
2.5955,-0.204315,
2.596,-0.126648,
2.5965,-0.147858,
2.597,-0.243073,
2.5975,-0.20874,
2.598,-0.0949097,
2.5985,-0.0747681,
2.599,-0.0770569,
2.5995,-0.0349426,
2.6,-0.0869751,
2.6005,-0.244904,
2.601,-0.242004,
2.6015,-0.0627136,
2.602,0.0166321,
2.6025,-0.0842285,
2.603,-0.210724,
2.6035,-0.227203,
2.604,-0.167999,
2.6045,-0.117645,
2.605,-0.088501,
2.6055,-0.0526428,
2.606,-0.00518799,
2.6065,0.027771,
2.607,0.0219727,
2.6075,-0.00717163,
2.608,-0.0213623,
2.6085,-0.00473022,
2.609,0.012207,
2.6095,0.0126648,
2.61,-0.0189209,
2.6105,-0.0764465,
2.611,-0.0749207,
2.6115,0.0334167,
2.612,0.174255,
2.6125,0.239868,
2.613,0.158081,
2.6135,0.018158,
2.614,0.000457764,
2.6145,0.0965881,
2.615,0.164948,
2.6155,0.155487,
2.616,0.12619,
2.6165,0.0384521,
2.617,-0.175629,
2.6175,-0.354462,
2.618,-0.318451,
2.6185,-0.172272,
2.619,-0.0735474,
2.6195,-0.0474548,
2.62,-0.0268555,
2.6205,0.0318909,
2.621,0.115967,
2.6215,0.177917,
2.622,0.247803,
2.6225,0.326538,
2.623,0.3862,
2.6235,0.43335,
2.624,0.382538,
2.6245,0.11734,
2.625,-0.164948,
2.6255,-0.188904,
2.626,-0.101318,
2.6265,-0.0575256,
2.627,0.0352478,
2.6275,0.0738525,
2.628,-0.0141907,
2.6285,-0.116577,
2.629,-0.158539,
2.6295,-0.168915,
2.63,-0.12146,
2.6305,-0.0726318,
2.631,-0.112762,
2.6315,-0.166321,
2.632,-0.137329,
2.6325,-0.0552368,
2.633,-0.0393677,
2.6335,-0.148926,
2.634,-0.232544,
2.6345,-0.144501,
2.635,0.00518799,
2.6355,0.0552368,
2.636,0.00823975,
2.6365,-0.0146484,
2.637,0.0367737,
2.6375,0.101471,
2.638,0.113831,
2.6385,0.0994873,
2.639,0.100708,
2.6395,0.0881958,
2.64,-0.00411987,
2.6405,-0.202332,
2.641,-0.391083,
2.6415,-0.424652,
2.642,-0.351868,
2.6425,-0.306549,
2.643,-0.289612,
2.6435,-0.202026,
2.644,-0.0340271,
2.6445,0.120392,
2.645,0.245361,
2.6455,0.308838,
2.646,0.267487,
2.6465,0.205231,
2.647,0.237122,
2.6475,0.344391,
2.648,0.388947,
2.6485,0.362854,
2.649,0.368042,
2.6495,0.247192,
2.65,-0.137939,
2.6505,-0.498352,
2.651,-0.525665,
2.6515,-0.284729,
2.652,0.0486755,
2.6525,0.319977,
2.653,0.399323,
2.6535,0.404968,
2.654,0.533295,
2.6545,0.69931,
2.655,0.670624,
2.6555,0.345764,
2.656,-0.065918,
2.6565,-0.300598,
2.657,-0.357819,
2.6575,-0.338898,
2.658,-0.333405,
2.6585,-0.385437,
2.659,-0.391693,
2.6595,-0.267944,
2.66,-0.131531,
2.6605,-0.102844,
2.661,-0.162659,
2.6615,-0.22522,
2.662,-0.203094,
2.6625,-0.0831604,
2.663,0.0460815,
2.6635,0.0831604,
2.664,0.043335,
2.6645,-0.0236511,
2.665,-0.0747681,
2.6655,-0.0904846,
2.666,-0.0679016,
2.6665,-0.0382996,
2.667,-0.0375366,
2.6675,-0.0743103,
2.668,-0.138245,
2.6685,-0.184479,
2.669,-0.175018,
2.6695,-0.162048,
2.67,-0.141602,
2.6705,-0.0646973,
2.671,0.0479126,
2.6715,0.155945,
2.672,0.249481,
2.6725,0.293274,
2.673,0.287628,
2.6735,0.272827,
2.674,0.258789,
2.6745,0.21759,
2.675,0.12558,
2.6755,0.0369263,
2.676,0.00152588,
2.6765,-0.0135803,
2.677,-0.0338745,
2.6775,-0.0143433,
2.678,0.0216675,
2.6785,0.032196,
2.679,0.0244141,
2.6795,-0.150909,
2.68,-0.534515,
2.6805,-0.662231,
2.681,-0.277863,
2.6815,0.163116,
2.682,0.20813,
2.6825,0.10788,
2.683,0.175323,
2.6835,0.408936,
2.684,0.662842,
2.6845,0.620117,
2.685,0.150604,
2.6855,-0.405579,
2.686,-0.626984,
2.6865,-0.497437,
2.687,-0.363617,
2.6875,-0.310059,
2.688,-0.185394,
2.6885,-0.00808716,
2.689,0.057373,
2.6895,0.0286865,
2.69,0.0224304,
2.6905,0.0508118,
2.691,0.0344849,
2.6915,-0.0386047,
2.692,-0.0608826,
2.6925,0.0134277,
2.693,0.0842285,
2.6935,0.0788879,
2.694,0.0236511,
2.6945,-0.0474548,
2.695,-0.0628662,
2.6955,0.0158691,
2.696,0.115662,
2.6965,0.162811,
2.697,0.178375,
2.6975,0.166626,
2.698,0.13916,
2.6985,0.144501,
2.699,0.152283,
2.6995,0.115967,
2.7,0.102539,
2.7005,0.157471,
2.701,0.189819,
2.7015,0.225525,
2.702,0.373688,
2.7025,0.57251,
2.703,0.621033,
2.7035,0.421143,
2.704,0.0521851,
2.7045,-0.230713,
2.705,-0.233459,
2.7055,-0.0840759,
2.706,-0.0410461,
2.7065,-0.161743,
2.707,-0.250092,
2.7075,-0.209351,
2.708,-0.0947571,
2.7085,0.0108337,
2.709,0.0256348,
2.7095,0.018158,
2.71,0.130615,
2.7105,0.288544,
2.711,0.295715,
2.7115,0.170135,
2.712,0.127869,
2.7125,0.147858,
2.713,-0.00976563,
2.7135,-0.356445,
2.714,-0.791016,
2.7145,-1.0936,
2.715,-1.02371,
2.7155,-0.72113,
2.716,-0.46463,
2.7165,-0.215149,
2.717,0.0979614,
2.7175,0.293427,
2.718,0.269318,
2.7185,0.13855,
2.719,0.0292969,
2.7195,-0.0424194,
2.72,-0.0495911,
2.7205,0.0300598,
2.721,0.0863647,
2.7215,0.0350952,
2.722,-0.0674438,
2.7225,-0.101929,
2.723,-0.0721741,
2.7235,-0.0694275,
2.724,-0.0994873,
2.7245,-0.102844,
2.725,-0.00747681,
2.7255,0.160065,
2.726,0.252228,
2.7265,0.251007,
2.727,0.296478,
2.7275,0.402832,
2.728,0.475616,
2.7285,0.45166,
2.729,0.289459,
2.7295,0.0808716,
2.73,-0.0428772,
2.7305,-0.122986,
2.731,-0.270691,
2.7315,-0.401001,
2.732,-0.363464,
2.7325,-0.220032,
2.733,-0.131836,
2.7335,-0.110016,
2.734,-0.0460815,
2.7345,0.050354,
2.735,0.062561,
2.7355,0.0253296,
2.736,0.0131226,
2.7365,-0.0215149,
2.737,-0.0761414,
2.7375,-0.0770569,
2.738,-0.0332642,
2.7385,0.0038147,
2.739,0.0126648,
2.7395,-0.0126648,
2.74,-0.058136,
2.7405,-0.0639343,
2.741,-0.00228882,
2.7415,0.065155,
2.742,0.0788879,
2.7425,0.0119019,
2.743,-0.0791931,
2.7435,-0.0549316,
2.744,0.0511169,
2.7445,0.0714111,
2.745,-0.0128174,
2.7455,-0.107727,
2.746,-0.150604,
2.7465,-0.133362,
2.747,-0.0961304,
2.7475,-0.0769043,
2.748,-0.0828552,
2.7485,-0.10849,
2.749,-0.12619,
2.7495,-0.133972,
2.75,-0.172577,
2.7505,-0.28183,
2.751,-0.387878,
2.7515,-0.372925,
2.752,-0.239258,
2.7525,-0.0930786,
2.753,-0.0415039,
2.7535,-0.0567627,
2.754,0.0236511,
2.7545,0.12558,
2.755,0.0788879,
2.7555,0.0370789,
2.756,0.0715637,
2.7565,0.0927734,
2.757,0.124664,
2.7575,0.207672,
2.758,0.337219,
2.7585,0.491638,
2.759,0.64743,
2.7595,0.743713,
2.76,0.760651,
2.7605,0.662537,
2.761,0.441895,
2.7615,0.251007,
2.762,0.145264,
2.7625,0.0466919,
2.763,-0.0622559,
2.7635,-0.168457,
2.764,-0.216827,
2.7645,-0.162811,
2.765,-0.0793457,
2.7655,-0.0686646,
2.766,-0.107269,
2.7665,-0.105438,
2.767,-0.0823975,
2.7675,-0.105896,
2.768,-0.16983,
2.7685,-0.207214,
2.769,-0.170135,
2.7695,-0.0947571,
2.77,-0.0404358,
2.7705,-0.0216675,
2.771,-0.0112915,
2.7715,0.0137329,
2.772,0.0384521,
2.7725,0.0473022,
2.773,0.0479126,
2.7735,0.0132751,
2.774,-0.0636292,
2.7745,-0.101471,
2.775,-0.0737,
2.7755,-0.0495911,
2.776,-0.0300598,
2.7765,0.020752,
2.777,0.0602722,
2.7775,0.0682068,
2.778,0.0683594,
2.7785,0.0753784,
2.779,0.0856018,
2.7795,0.0917053,
2.78,0.096283,
2.7805,0.0894165,
2.781,0.032196,
2.7815,-0.115662,
2.782,-0.272064,
2.7825,-0.331268,
2.783,-0.292664,
2.7835,-0.220795,
2.784,-0.203857,
2.7845,-0.233002,
2.785,-0.171814,
2.7855,-0.0038147,
2.786,0.161133,
2.7865,0.302124,
2.787,0.38681,
2.7875,0.375214,
2.788,0.331726,
2.7885,0.250702,
2.789,0.0952148,
2.7895,-0.0714111,
2.79,-0.206604,
2.7905,-0.291748,
2.791,-0.269318,
2.7915,-0.2034,
2.792,-0.245819,
2.7925,-0.316925,
2.793,-0.219421,
2.7935,0.00152588,
2.794,0.129242,
2.7945,0.10788,
2.795,0.0422668,
2.7955,-0.0360107,
2.796,-0.0857544,
2.7965,-0.00442505,
2.797,0.0506592,
2.7975,-0.147247,
2.798,-0.425262,
2.7985,-0.43457,
2.799,-0.252838,
2.7995,-0.115051,
2.8,-0.0894165,
2.8005,-0.108032,
2.801,-0.0331116,
2.8015,0.171509,
2.802,0.335846,
2.8025,0.36972,
2.803,0.372772,
2.8035,0.39444,
2.804,0.355835,
2.8045,0.223846,
2.805,0.0894165,
2.8055,0.0444031,
2.806,0.104065,
2.8065,0.2034,
2.807,0.217133,
2.8075,0.0634766,
2.808,-0.110321,
2.8085,-0.139771,
2.809,-0.131073,
2.8095,-0.194244,
2.81,-0.275726,
2.8105,-0.316772,
2.811,-0.321198,
2.8115,-0.290985,
2.812,-0.235596,
2.8125,-0.185089,
2.813,-0.115509,
2.8135,-0.0257874,
2.814,-0.0062561,
2.8145,-0.0177002,
2.815,0.0495911,
2.8155,0.105896,
2.816,0.00320435,
2.8165,-0.0938416,
2.817,-0.0253296,
2.8175,0.0668335,
2.818,0.0404358,
2.8185,0.0050354,
2.819,0.0770569,
2.8195,0.155334,
2.82,0.0987244,
2.8205,-0.0987244,
2.821,-0.272369,
2.8215,-0.245514,
2.822,-0.0665283,
2.8225,0.102539,
2.823,0.266571,
2.8235,0.490417,
2.824,0.611267,
2.8245,0.461426,
2.825,0.156708,
2.8255,-0.0428772,
2.826,-0.0312805,
2.8265,0.032959,
2.827,0.0764465,
2.8275,0.126038,
2.828,0.131226,
2.8285,0.0482178,
2.829,-0.106354,
2.8295,-0.214996,
2.83,-0.166016,
2.8305,-0.065918,
2.831,-0.06073,
2.8315,-0.13855,
2.832,-0.144043,
2.8325,-0.038147,
2.833,0.0619507,
2.8335,0.0770569,
2.834,0.0346375,
2.8345,-0.0279236,
2.835,-0.109863,
2.8355,-0.160217,
2.836,-0.108185,
2.8365,-0.0158691,
2.837,0.0170898,
2.8375,0.000152588,
2.838,-0.00244141,
2.8385,0.0125122,
2.839,0.0292969,
2.8395,0.0325012,
2.84,0.0106812,
2.8405,-0.0453186,
2.841,-0.102081,
2.8415,-0.118561,
2.842,-0.093689,
2.8425,-0.0654602,
2.843,-0.0697327,
2.8435,-0.101624,
2.844,-0.12085,
2.8445,-0.116882,
2.845,-0.109253,
2.8455,-0.0891113,
2.846,-0.0514221,
2.8465,-0.0202942,
2.847,0.0105286,
2.8475,0.0788879,
2.848,0.140381,
2.8485,0.135651,
2.849,0.112305,
2.8495,0.145569,
2.85,0.205688,
2.8505,0.238953,
2.851,0.207977,
2.8515,0.150452,
2.852,0.141907,
2.8525,0.13504,
2.853,-0.0108337,
2.8535,-0.231934,
2.854,-0.231934,
2.8545,0.0559998,
2.855,0.342102,
2.8555,0.402985,
2.856,0.176392,
2.8565,-0.165863,
2.857,-0.305176,
2.8575,-0.249939,
2.858,-0.223694,
2.8585,-0.265198,
2.859,-0.274048,
2.8595,-0.265503,
2.86,-0.227509,
2.8605,-0.113678,
2.861,0.0318909,
2.8615,0.130463,
2.862,0.160217,
2.8625,0.154266,
2.863,0.117798,
2.8635,0.0473022,
2.864,-0.018158,
2.8645,-0.0524902,
2.865,-0.0584412,
2.8655,-0.0309753,
2.866,0.00274658,
2.8665,0.00732422,
2.867,-0.025177,
2.8675,-0.0857544,
2.868,-0.131531,
2.8685,-0.146179,
2.869,-0.141449,
2.8695,-0.105438,
2.87,-0.0509644,
2.8705,-0.0167847,
2.871,-0.0282288,
2.8715,-0.0865173,
2.872,-0.122528,
2.8725,-0.0921631,
2.873,-0.0115967,
2.8735,0.0624084,
2.874,0.0698853,
2.8745,0.0456238,
2.875,0.0830078,
2.8755,0.195313,
2.876,0.321808,
2.8765,0.386505,
2.877,0.30365,
2.8775,0.134888,
2.878,0.0531006,
2.8785,0.150757,
2.879,0.295563,
2.8795,0.200195,
2.88,-0.0915527,
2.8805,-0.2005,
2.881,-0.0621033,
2.8815,0.0167847,
2.882,0.0445557,
2.8825,0.23941,
2.883,0.469208,
2.8835,0.520477,
2.884,0.453033,
2.8845,0.285797,
2.885,-0.0331116,
2.8855,-0.303192,
2.886,-0.303192,
2.8865,-0.149536,
2.887,-0.0993347,
2.8875,-0.142059,
2.888,-0.0921631,
2.8885,-0.0309753,
2.889,-0.0704956,
2.8895,-0.1297,
2.89,-0.165558,
2.8905,-0.177917,
2.891,-0.167694,
2.8915,-0.183105,
2.892,-0.218811,
2.8925,-0.209198,
2.893,-0.141754,
2.8935,-0.0727844,
2.894,-0.0447083,
2.8945,-0.0445557,
2.895,-0.0567627,
2.8955,-0.0862122,
2.896,-0.113525,
2.8965,-0.115967,
2.897,-0.0970459,
2.8975,-0.0624084,
2.898,-0.0308228,
2.8985,-0.0297546,
2.899,-0.055542,
2.8995,-0.070343,
2.9,-0.0474548,
2.9005,0.00930786,
2.901,0.0857544,
2.9015,0.124512,
2.902,0.0956726,
2.9025,0.0125122,
2.903,-0.0512695,
2.9035,-0.0486755,
2.904,-0.0274658,
2.9045,-0.0488281,
2.905,-0.0901794,
2.9055,-0.112305,
2.906,-0.10788,
2.9065,-0.0721741,
2.907,-0.00396729,
2.9075,0.0689697,
2.908,0.108337,
2.9085,0.0978088,
2.909,0.0543213,
2.9095,0.0242615,
2.91,0.0386047,
2.9105,0.0788879,
2.911,0.106354,
2.9115,0.085907,
2.912,0.038147,
2.9125,0.0456238,
2.913,0.126343,
2.9135,0.168762,
2.914,0.122833,
2.9145,0.0921631,
2.915,0.0946045,
2.9155,0.0494385,
2.916,0.00656128,
2.9165,0.0733948,
2.917,0.209351,
2.9175,0.282745,
2.918,0.269623,
2.9185,0.183563,
2.919,0.00793457,
2.9195,-0.149078,
2.92,-0.142212,
2.9205,-0.00701904,
2.921,0.0773621,
2.9215,0.0262451,
2.922,-0.0830078,
2.9225,-0.136108,
2.923,-0.130768,
2.9235,-0.121765,
2.924,-0.162964,
2.9245,-0.27832,
2.925,-0.367279,
2.9255,-0.303802,
2.926,-0.141602,
2.9265,0.00671387,
2.927,0.164642,
2.9275,0.282135,
2.928,0.262451,
2.9285,0.205994,
2.929,0.236664,
2.9295,0.293732,
2.93,0.26123,
2.9305,0.128632,
2.931,-0.0334167,
2.9315,-0.164032,
2.932,-0.262146,
2.9325,-0.265045,
2.933,-0.122528,
2.9335,0.0489807,
2.934,0.134583,
2.9345,0.167084,
2.935,0.196533,
2.9355,0.183868,
2.936,0.104675,
2.9365,0.0123596,
2.937,-0.0669861,
2.9375,-0.162964,
2.938,-0.297546,
2.9385,-0.399017,
2.939,-0.355377,
2.9395,-0.22934,
2.94,-0.128937,
2.9405,-0.050354,
2.941,0.0421143,
2.9415,0.140381,
2.942,0.210571,
2.9425,0.227966,
2.943,0.19989,
2.9435,0.157623,
2.944,0.158081,
2.9445,0.192719,
2.945,0.116882,
2.9455,-0.136566,
2.946,-0.353699,
2.9465,-0.347595,
2.947,-0.250244,
2.9475,-0.197449,
2.948,-0.191345,
2.9485,-0.228577,
2.949,-0.314026,
2.9495,-0.36972,
2.95,-0.324402,
2.9505,-0.240784,
2.951,-0.195618,
2.9515,-0.162506,
2.952,-0.102081,
2.9525,-0.0311279,
2.953,0.0274658,
2.9535,0.072937,
2.954,0.111542,
2.9545,0.153809,
2.955,0.145416,
2.9555,0.0492859,
2.956,-0.0279236,
2.9565,-0.0189209,
2.957,-0.0100708,
2.9575,-0.0276184,
2.958,-0.0341797,
2.9585,-0.0657654,
2.959,-0.151978,
2.9595,-0.227356,
2.96,-0.225372,
2.9605,-0.175018,
2.961,-0.143433,
2.9615,-0.137024,
2.962,-0.10376,
2.9625,0.0643921,
2.963,0.328369,
2.9635,0.461426,
2.964,0.372009,
2.9645,0.248413,
2.965,0.237732,
2.9655,0.259247,
2.966,0.296783,
2.9665,0.337677,
2.967,0.254059,
2.9675,0.106812,
2.968,0.0990295,
2.9685,0.246735,
2.969,0.381165,
2.9695,0.398865,
2.97,0.273285,
2.9705,0.0735474,
2.971,-0.0823975,
2.9715,-0.166321,
2.972,-0.225372,
2.9725,-0.26413,
2.973,-0.209045,
2.9735,-0.0335693,
2.974,0.247192,
2.9745,0.603333,
2.975,0.737915,
2.9755,0.457916,
2.976,0.0440979,
2.9765,-0.110474,
2.977,-0.0485229,
2.9775,-0.110321,
2.978,-0.303497,
2.9785,-0.413055,
2.979,-0.514374,
2.9795,-0.652008,
2.98,-0.599976,
2.9805,-0.428314,
2.981,-0.326691,
2.9815,-0.283051,
2.982,-0.185394,
2.9825,0.014801,
2.983,0.27771,
2.9835,0.486145,
2.984,0.511169,
2.9845,0.357361,
2.985,0.166016,
2.9855,0.045929,
2.986,-0.0250244,
2.9865,-0.0994873,
2.987,-0.14267,
2.9875,-0.12207,
2.988,-0.0813293,
2.9885,-0.0604248,
2.989,-0.0743103,
2.9895,-0.0965881,
2.99,-0.0900269,
2.9905,-0.0669861,
2.991,-0.0468445,
2.9915,-0.0288391,
2.992,-0.00274658,
2.9925,0.0349426,
2.993,0.0718689,
2.9935,0.0740051,
2.994,0.0163269,
2.9945,-0.0495911,
2.995,-0.0791931,
2.9955,-0.0856018,
2.996,-0.0804138,
2.9965,-0.0715637,
2.997,-0.0721741,
2.9975,-0.0393677,
2.998,0.0268555,
2.9985,0.0270081,
2.999,-0.0480652,
2.9995,-0.0915527,
3,-0.0762939,
3.0005,-0.0569153,
3.001,-0.0653076,
3.0015,-0.0927734,
3.002,-0.0970459,
3.0025,-0.0448608,
3.003,0.0389099,
3.0035,0.0891113,
3.004,0.0759888,
3.0045,0.0460815,
3.005,0.0526428,
3.0055,0.0668335,
3.006,0.0602722,
3.0065,0.0514221,
3.007,0.0563049,
3.0075,0.0546265,
3.008,0.0401306,
3.0085,0.042572,
3.009,0.0900269,
3.0095,0.139313,
3.01,0.141602,
3.0105,0.0927734,
3.011,0.0244141,
3.0115,-0.0212097,
3.012,-0.0521851,
3.0125,-0.0726318,
3.013,-0.0578308,
3.0135,-0.0140381,
3.014,0.0248718,
3.0145,0.0370789,
3.015,0.0434875,
3.0155,0.0527954,
3.016,0.0453186,
3.0165,0.0239563,
3.017,0.00335693,
3.0175,-0.00396729,
3.018,0.0326538,
3.0185,0.106506,
3.019,0.162964,
3.0195,0.177612,
3.02,0.172882,
3.0205,0.13855,
3.021,0.0616455,
3.0215,-0.0788879,
3.022,-0.340424,
3.0225,-0.529785,
3.023,-0.473175,
3.0235,-0.272522,
3.024,-0.114746,
3.0245,-0.0691223,
3.025,-0.0801086,
3.0255,-0.101624,
3.026,-0.124207,
3.0265,-0.135803,
3.027,-0.127411,
3.0275,-0.111542,
3.028,-0.0712585,
3.0285,0.0273132,
3.029,0.165253,
3.0295,0.269928,
3.03,0.302887,
3.0305,0.307007,
3.031,0.297852,
3.0315,0.253906,
3.032,0.193481,
3.0325,0.132904,
3.033,0.0682068,
3.0335,0.00350952,
3.034,-0.0561523,
3.0345,-0.12207,
3.035,-0.18158,
3.0355,-0.199432,
3.036,-0.163879,
3.0365,-0.0921631,
3.037,-0.0161743,
3.0375,0.0384521,
3.038,0.0517273,
3.0385,0.0395203,
3.039,0.0448608,
3.0395,0.0666809,
3.04,0.0718689,
3.0405,0.0578308,
3.041,0.0256348,
3.0415,-0.0248718,
3.042,-0.0691223,
3.0425,-0.0743103,
3.043,-0.0517273,
3.0435,-0.0349426,
3.044,-0.0111389,
3.0445,0.0152588,
3.045,0.0149536,
3.0455,-0.00106812,
3.046,-0.00442505,
3.0465,-0.00457764,
3.047,-0.0166321,
3.0475,-0.0456238,
3.048,-0.091095,
3.0485,-0.118103,
3.049,-0.0109863,
3.0495,0.196228,
3.05,0.253296,
3.0505,0.111542,
3.051,0.0465393,
3.0515,0.196228,
3.052,0.384064,
3.0525,0.454407,
3.053,0.455475,
3.0535,0.392609,
3.054,0.191345,
3.0545,-0.109253,
3.055,-0.389099,
3.0555,-0.605316,
3.056,-0.664978,
3.0565,-0.479279,
3.057,-0.238037,
3.0575,-0.159912,
3.058,-0.175018,
3.0585,-0.118256,
3.059,-0.00259399,
3.0595,0.0109863,
3.06,-0.147552,
3.0605,-0.35141,
3.061,-0.441589,
3.0615,-0.360107,
3.062,-0.162964,
3.0625,0.0190735,
3.063,0.172577,
3.0635,0.315247,
3.064,0.368042,
3.0645,0.304108,
3.065,0.215759,
3.0655,0.194244,
3.066,0.243225,
3.0665,0.287476,
3.067,0.259552,
3.0675,0.169067,
3.068,0.0666809,
3.0685,-0.0473022,
3.069,-0.182037,
3.0695,-0.249786,
3.07,-0.191498,
3.0705,-0.096283,
3.071,-0.0387573,
3.0715,0.00457764,
3.072,0.0628662,
3.0725,0.090332,
3.073,0.0595093,
3.0735,0.00900269,
3.074,-0.0219727,
3.0745,-0.0134277,
3.075,0.00915527,
3.0755,0.000610352,
3.076,-0.0297546,
3.0765,-0.0395203,
3.077,-0.0288391,
3.0775,-0.0144958,
3.078,0.00457764,
3.0785,0.0212097,
3.079,0.0244141,
3.0795,0.0140381,
3.08,-0.0161743,
3.0805,-0.0506592,
3.081,-0.0541687,
3.0815,-0.0317383,
3.082,-0.0187683,
3.0825,-0.0221252,
3.083,-0.0334167,
3.0835,-0.0404358,
3.084,-0.0315857,
3.0845,-0.0163269,
3.085,-0.00854492,
3.0855,0.00167847,
3.086,0.0332642,
3.0865,0.0532532,
3.087,0.0457764,
3.0875,0.0244141,
3.088,0.0112915,
3.0885,0.0262451,
3.089,0.0463867,
3.0895,0.0460815,
3.09,0.0375366,
3.0905,0.018158,
3.091,-0.0177002,
3.0915,-0.0315857,
3.092,-0.0231934,
3.0925,-0.0302124,
3.093,-0.0320435,
3.0935,-0.00396729,
3.094,0.0309753,
3.0945,0.0813293,
3.095,0.191803,
3.0955,0.279694,
3.096,0.219879,
3.0965,0.103912,
3.097,0.0848389,
3.0975,0.0994873,
3.098,0.0300598,
3.0985,-0.0749207,
3.099,-0.113373,
3.0995,-0.126038,
3.1,-0.217743,
3.1005,-0.350494,
3.101,-0.349426,
3.1015,-0.222626,
3.102,-0.093689,
3.1025,-0.0325012,
3.103,-0.0340271,
3.1035,-0.0382996,
3.104,-0.0434875,
3.1045,-0.0526428,
3.105,-0.0189209,
3.1055,0.0456238,
3.106,0.0646973,
3.1065,-0.00457764,
3.107,-0.108032,
3.1075,-0.14679,
3.108,-0.0914001,
3.1085,-0.000457764,
3.109,0.10498,
3.1095,0.218658,
3.11,0.255127,
3.1105,0.187073,
3.111,0.0805664,
3.1115,0.00534058,
3.112,-0.000762939,
3.1125,0.0337219,
3.113,0.0941467,
3.1135,0.156097,
3.114,0.140381,
3.1145,0.0180054,
3.115,-0.145569,
3.1155,-0.267487,
3.116,-0.31311,
3.1165,-0.259552,
3.117,-0.13855,
3.1175,-0.018158,
3.118,0.0932312,
3.1185,0.201874,
3.119,0.261383,
3.1195,0.241852,
3.12,0.164032,
3.1205,0.0778198,
3.121,-0.00518799,
3.1215,-0.090332,
3.122,-0.113373,
3.1225,-0.0932312,
3.123,-0.146027,
3.1235,-0.243683,
3.124,-0.235138,
3.1245,-0.135498,
3.125,-0.0895691,
3.1255,-0.138245,
3.126,-0.218811,
3.1265,-0.271912,
3.127,-0.276642,
3.1275,-0.214539,
3.128,-0.0852966,
3.1285,0.0671387,
3.129,0.2005,
3.1295,0.263672,
3.13,0.258026,
3.1305,0.326538,
3.131,0.550385,
3.1315,0.672607,
3.132,0.515747,
3.1325,0.336151,
3.133,0.366974,
3.1335,0.455933,
3.134,0.374603,
3.1345,0.117645,
3.135,-0.0656128,
3.1355,-0.09552,
3.136,-0.155029,
3.1365,-0.215302,
3.137,-0.198517,
3.1375,-0.213318,
3.138,-0.262146,
3.1385,-0.225525,
3.139,-0.134888,
3.1395,-0.105591,
3.14,-0.119476,
3.1405,-0.10849,
3.141,-0.102234,
3.1415,-0.138092,
3.142,-0.1828,
3.1425,-0.200195,
3.143,-0.212402,
3.1435,-0.21225,
3.144,-0.151978,
3.1445,-0.0927734,
3.145,-0.0683594,
3.1455,-0.0325012,
3.146,-0.000610352,
3.1465,-0.0112915,
3.147,-0.0602722,
3.1475,-0.0973511,
3.148,-0.0836182,
3.1485,-0.0788879,
3.149,-0.110626,
3.1495,-0.112152,
3.15,-0.0723267,
3.1505,-0.0158691,
3.151,0.0483704,
3.1515,0.080719,
3.152,0.030365,
3.1525,-0.0204468,
3.153,0.0335693,
3.1535,0.135651,
3.154,0.147705,
3.1545,0.0445557,
3.155,-0.088501,
3.1555,-0.120392,
3.156,0.0460815,
3.1565,0.327454,
3.157,0.494843,
3.1575,0.476685,
3.158,0.401459,
3.1585,0.350037,
3.159,0.281525,
3.1595,0.164642,
3.16,0.0273132,
3.1605,-0.0617981,
3.161,-0.129089,
3.1615,-0.213165,
3.162,-0.272217,
3.1625,-0.291901,
3.163,-0.273743,
3.1635,-0.227661,
3.164,-0.178833,
3.1645,-0.138092,
3.165,-0.103607,
3.1655,-0.067749,
3.166,-0.0570679,
3.1665,-0.0857544,
3.167,-0.0993347,
3.1675,-0.0564575,
3.168,-0.0169373,
3.1685,-0.0265503,
3.169,-0.0532532,
3.1695,-0.0540161,
3.17,-0.0273132,
3.1705,0.00747681,
3.171,0.0323486,
3.1715,0.038147,
3.172,0.0297546,
3.1725,0.0259399,
3.173,0.0231934,
3.1735,-0.00183105,
3.174,-0.0462341,
3.1745,-0.0566101,
3.175,-0.0212097,
3.1755,-0.00411987,
3.176,-0.022583,
3.1765,-0.0410461,
3.177,-0.0331116,
3.1775,-0.00488281,
3.178,0.0273132,
3.1785,0.0439453,
3.179,0.0401306,
3.1795,0.0318909,
3.18,0.040741,
3.1805,0.0746155,
3.181,0.108032,
3.1815,0.0994873,
3.182,0.0424194,
3.1825,-0.0175476,
3.183,-0.0498962,
3.1835,-0.0134277,
3.184,0.0376892,
3.1845,0.00930786,
3.185,-0.0106812,
3.1855,0.0544739,
3.186,0.116577,
3.1865,0.128326,
3.187,0.157013,
3.1875,0.184479,
3.188,0.133209,
3.1885,0.0280762,
3.189,-0.0228882,
3.1895,-0.0279236,
3.19,-0.0561523,
3.1905,-0.0512695,
3.191,-0.0184631,
3.1915,-0.0233459,
3.192,-0.0382996,
3.1925,-0.0151062,
3.193,0.00167847,
3.1935,-0.0624084,
3.194,-0.174866,
3.1945,-0.23056,
3.195,-0.187531,
3.1955,-0.100403,
3.196,-0.0434875,
3.1965,-0.0390625,
3.197,-0.0669861,
3.1975,-0.11261,
