0,0.00610352,
0.0005,0.00656128,
0.001,0.0038147,
0.0015,-0.000305176,
0.002,-0.00274658,
0.0025,-0.00305176,
0.003,-0.00335693,
0.0035,-0.00442505,
0.004,-0.00534058,
0.0045,-0.00167847,
0.005,0.000610352,
0.0055,0.00137329,
0.006,0.000457764,
0.0065,-0.000457764,
0.007,-0.000762939,
0.0075,-0.000762939,
0.008,-0.00198364,
0.0085,-0.00411987,
0.009,-0.00701904,
0.0095,-0.00671387,
0.01,-0.00732422,
0.0105,-0.00823975,
0.011,-0.00930786,
0.0115,-0.00808716,
0.012,-0.0062561,
0.0125,-0.00549316,
0.013,-0.00717163,
0.0135,-0.00686646,
0.014,-0.00366211,
0.0145,-0.0038147,
0.015,-0.00534058,
0.0155,-0.00442505,
0.016,-0.00244141,
0.0165,-0.0012207,
0.017,-0.000762939,
0.0175,-0.00213623,
0.018,-0.00320435,
0.0185,-0.00335693,
0.019,-0.00427246,
0.0195,-0.00686646,
0.02,-0.00946045,
0.0205,-0.00762939,
0.021,-0.00488281,
0.0215,-0.0038147,
0.022,-0.00473022,
0.0225,-0.00549316,
0.023,-0.00823975,
0.0235,-0.00915527,
0.024,-0.00564575,
0.0245,-0.00228882,
0.025,-0.00244141,
0.0255,-0.00305176,
0.026,-0.00213623,
0.0265,-0.00259399,
0.027,-0.00396729,
0.0275,-0.00808716,
0.028,-0.0062561,
0.0285,-0.00167847,
0.029,-0.000610352,
0.0295,-0.00183105,
0.03,-0.000610352,
0.0305,0.000915527,
0.031,0.0012207,
0.0315,-0.000915527,
0.032,-0.00259399,
0.0325,-0.000762939,
0.033,0.00106812,
0.0335,-0.00106812,
0.034,-0.00289917,
0.0345,-0.000610352,
0.035,0.00244141,
0.0355,0.00366211,
0.036,0.00244141,
0.0365,0.000610352,
0.037,-0.00457764,
0.0375,-0.00701904,
0.038,-0.00549316,
0.0385,-0.0038147,
0.039,-0.00595093,
0.0395,-0.00900269,
0.04,-0.00778198,
0.0405,-0.0050354,
0.041,-0.00259399,
0.0415,-0.00106812,
0.042,-0.000610352,
0.0425,-0.00198364,
0.043,-0.00274658,
0.0435,-0.00305176,
0.044,-0.00335693,
0.0445,-0.00411987,
0.045,-0.00427246,
0.0455,-0.00488281,
0.046,-0.00427246,
0.0465,-0.00244141,
0.047,-0.00366211,
0.0475,-0.00534058,
0.048,-0.00274658,
0.0485,-0.000305176,
0.049,-0.00244141,
0.0495,-0.00350952,
0.05,-0.00366211,
0.0505,-0.00213623,
0.051,-0.00244141,
0.0515,-0.00289917,
0.052,-0.00457764,
0.0525,-0.00442505,
0.053,-0.00350952,
0.0535,-0.00442505,
0.054,-0.00411987,
0.0545,-0.00198364,
0.055,-0.000915527,
0.0555,-0.00213623,
0.056,-0.00427246,
0.0565,-0.00427246,
0.057,-0.00473022,
0.0575,-0.00427246,
0.058,-0.0012207,
0.0585,-0.000457764,
0.059,-0.00167847,
0.0595,-0.00427246,
0.06,-0.00549316,
0.0605,-0.00320435,
0.061,0,
0.0615,-0.000457764,
0.062,-0.000915527,
0.0625,0.000610352,
0.063,0.00259399,
0.0635,0.00259399,
0.064,-0.00183105,
0.0645,-0.00488281,
0.065,-0.00442505,
0.0655,-0.00350952,
0.066,-0.00442505,
0.0665,-0.00549316,
0.067,-0.00564575,
0.0675,-0.00579834,
0.068,-0.00686646,
0.0685,-0.00396729,
0.069,-0.00183105,
0.0695,0.000610352,
0.07,0.0038147,
0.0705,0.00457764,
0.071,0.00289917,
0.0715,0.000762939,
0.072,-0.00183105,
0.0725,-0.000915527,
0.073,-0.000457764,
0.0735,0.00183105,
0.074,0.00228882,
0.0745,0.00289917,
0.075,0.00518799,
0.0755,0.00610352,
0.076,0.00518799,
0.0765,0.00564575,
0.077,0.00579834,
0.0775,0.00640869,
0.078,0.00518799,
0.0785,0.00167847,
0.079,-0.00167847,
0.0795,-0.00411987,
0.08,-0.00289917,
0.0805,-0.0012207,
0.081,-0.000762939,
0.0815,-0.00366211,
0.082,-0.00244141,
0.0825,-0.00137329,
0.083,0.00183105,
0.0835,0.00244141,
0.084,0.000457764,
0.0845,-0.00198364,
0.085,-0.00152588,
0.0855,-0.00274658,
0.086,-0.00457764,
0.0865,-0.00534058,
0.087,-0.00411987,
0.0875,-0.000610352,
0.088,-0.00198364,
0.0885,-0.00305176,
0.089,-0.00183105,
0.0895,-0.00228882,
0.09,-0.00427246,
0.0905,-0.00396729,
0.091,-0.00350952,
0.0915,-0.0012207,
0.092,-0.000305176,
0.0925,-0.000610352,
0.093,0.00152588,
0.0935,0.00335693,
0.094,0.00396729,
0.0945,0.00534058,
0.095,0.0050354,
0.0955,0.00167847,
0.096,-0.000457764,
0.0965,0.000610352,
0.097,0.000152588,
0.0975,0.000457764,
0.098,0,
0.0985,-0.00183105,
0.099,-0.00671387,
0.0995,-0.00854492,
0.1,-0.00610352,
0.1005,-0.0038147,
0.101,-0.00320435,
0.1015,-0.00595093,
0.102,-0.00396729,
0.1025,0,
0.103,0.00259399,
0.1035,0.00259399,
0.104,0.000457764,
0.1045,-0.000762939,
0.105,-0.00106812,
0.1055,0.000305176,
0.106,0.00259399,
0.1065,0.0038147,
0.107,0.00411987,
0.1075,0.00396729,
0.108,0.00305176,
0.1085,-0.000762939,
0.109,-0.00152588,
0.1095,0.000305176,
0.11,0,
0.1105,-0.00198364,
0.111,-0.00427246,
0.1115,-0.00289917,
0.112,-0.00137329,
0.1125,-0.000915527,
0.113,0.000457764,
0.1135,0.000305176,
0.114,-0.00167847,
0.1145,-0.000152588,
0.115,0.00244141,
0.1155,0.00366211,
0.116,0.00274658,
0.1165,0.00198364,
0.117,0.00274658,
0.1175,0.0038147,
0.118,0.00396729,
0.1185,0.00274658,
0.119,-0.000762939,
0.1195,-0.00137329,
0.12,0.000305176,
0.1205,0,
0.121,-0.000610352,
0.1215,0.000457764,
0.122,0.00366211,
0.1225,0.00488281,
0.123,0.000305176,
0.1235,-0.00137329,
0.124,-0.00244141,
0.1245,-0.00411987,
0.125,-0.00427246,
0.1255,-0.00213623,
0.126,-0.00106812,
0.1265,-0.000915527,
0.127,-0.00228882,
0.1275,-0.00305176,
0.128,-0.00457764,
0.1285,-0.00427246,
0.129,-0.00335693,
0.1295,-0.00213623,
0.13,-0.000915527,
0.1305,-0.000610352,
0.131,-0.000915527,
0.1315,0.000457764,
0.132,0.00152588,
0.1325,-0.00137329,
0.133,-0.00137329,
0.1335,0.000305176,
0.134,0.000152588,
0.1345,-0.00183105,
0.135,-0.00427246,
0.1355,-0.00427246,
0.136,-0.00350952,
0.1365,-0.00366211,
0.137,-0.00305176,
0.1375,-0.00228882,
0.138,0.000305176,
0.1385,0.00259399,
0.139,0.00106812,
0.1395,-0.00289917,
0.14,-0.0038147,
0.1405,-0.00213623,
0.141,0.000305176,
0.1415,-0.00106812,
0.142,-0.00152588,
0.1425,-0.00106812,
0.143,-0.00228882,
0.1435,-0.00167847,
0.144,-0.0038147,
0.1445,-0.00427246,
0.145,-0.00350952,
0.1455,-0.00198364,
0.146,-0.00106812,
0.1465,0.000610352,
0.147,-0.0012207,
0.1475,-0.00305176,
0.148,-0.00335693,
0.1485,-0.00198364,
0.149,-0.00106812,
0.1495,-0.000762939,
0.15,-0.00457764,
0.1505,-0.00762939,
0.151,-0.00808716,
0.1515,-0.00717163,
0.152,-0.00579834,
0.1525,-0.00579834,
0.153,-0.00717163,
0.1535,-0.00671387,
0.154,-0.00442505,
0.1545,-0.00228882,
0.155,-0.0012207,
0.1555,-0.000915527,
0.156,-0.00213623,
0.1565,-0.00427246,
0.157,-0.00244141,
0.1575,-0.00137329,
0.158,-0.00350952,
0.1585,-0.00488281,
0.159,-0.00274658,
0.1595,-0.00244141,
0.16,-0.00320435,
0.1605,-0.00198364,
0.161,-0.00350952,
0.1615,-0.00549316,
0.162,-0.00457764,
0.1625,-0.0038147,
0.163,-0.00335693,
0.1635,-0.00305176,
0.164,-0.00183105,
0.1645,-0.00244141,
0.165,-0.00320435,
0.1655,-0.00442505,
0.166,-0.00671387,
0.1665,-0.010376,
0.167,-0.0138855,
0.1675,-0.0140381,
0.168,-0.0132751,
0.1685,-0.0131226,
0.169,-0.0131226,
0.1695,-0.0105286,
0.17,-0.0062561,
0.1705,-0.00640869,
0.171,-0.00518799,
0.1715,0.000305176,
0.172,0.00564575,
0.1725,0.00976563,
0.173,0.00976563,
0.1735,0.00793457,
0.174,0.00823975,
0.1745,0.00732422,
0.175,0.00549316,
0.1755,0.00305176,
0.176,0.00167847,
0.1765,0.00137329,
0.177,0.000305176,
0.1775,-0.000610352,
0.178,0.00198364,
0.1785,0.00228882,
0.179,0.00183105,
0.1795,0.000152588,
0.18,-0.00198364,
0.1805,-0.00167847,
0.181,-0.00228882,
0.1815,-0.00152588,
0.182,-0.00396729,
0.1825,-0.00808716,
0.183,-0.0102234,
0.1835,-0.00793457,
0.184,-0.00488281,
0.1845,-0.0038147,
0.185,-0.00457764,
0.1855,-0.00823975,
0.186,-0.0114441,
0.1865,-0.0128174,
0.187,-0.00915527,
0.1875,-0.00534058,
0.188,-0.00640869,
0.1885,-0.00778198,
0.189,-0.00823975,
0.1895,-0.00686646,
0.19,-0.00854492,
0.1905,-0.00976563,
0.191,-0.010376,
0.1915,-0.00808716,
0.192,-0.00610352,
0.1925,-0.00442505,
0.193,-0.0050354,
0.1935,-0.00442505,
0.194,-0.00228882,
0.1945,-0.00473022,
0.195,-0.0088501,
0.1955,-0.0100708,
0.196,-0.0119019,
0.1965,-0.0115967,
0.197,-0.00808716,
0.1975,-0.00518799,
0.198,-0.0038147,
0.1985,-0.00579834,
0.199,-0.0062561,
0.1995,-0.00350952,
0.2,-0.00228882,
0.2005,-0.00274658,
0.201,-0.00198364,
0.2015,-0.00106812,
0.202,-0.00213623,
0.2025,-0.00305176,
0.203,-0.00198364,
0.2035,0.000152588,
0.204,0,
0.2045,0.00183105,
0.205,0.00213623,
0.2055,0.000762939,
0.206,-0.00198364,
0.2065,-0.000457764,
0.207,0.00106812,
0.2075,-0.00244141,
0.208,-0.00656128,
0.2085,-0.00915527,
0.209,-0.00915527,
0.2095,-0.00854492,
0.21,-0.00946045,
0.2105,-0.00656128,
0.211,-0.00244141,
0.2115,-0.0012207,
0.212,-0.00106812,
0.2125,0.00183105,
0.213,0.00335693,
0.2135,0.00152588,
0.214,0.00106812,
0.2145,0.00152588,
0.215,0.00152588,
0.2155,0.000152588,
0.216,-0.000762939,
0.2165,-0.00198364,
0.217,-0.000457764,
0.2175,0.00137329,
0.218,-0.0038147,
0.2185,-0.0088501,
0.219,-0.00808716,
0.2195,-0.0050354,
0.22,-0.00488281,
0.2205,-0.00549316,
0.221,-0.00579834,
0.2215,-0.00442505,
0.222,-0.00457764,
0.2225,-0.00396729,
0.223,-0.00259399,
0.2235,-0.0012207,
0.224,-0.000915527,
0.2245,-0.00305176,
0.225,-0.00518799,
0.2255,-0.00595093,
0.226,-0.00701904,
0.2265,-0.00915527,
0.227,-0.00900269,
0.2275,-0.00457764,
0.228,-0.00244141,
0.2285,-0.00152588,
0.229,-0.0012207,
0.2295,-0.000762939,
0.23,-0.00198364,
0.2305,-0.00305176,
0.231,-0.000762939,
0.2315,-0.000457764,
0.232,-0.00335693,
0.2325,-0.00534058,
0.233,-0.00595093,
0.2335,-0.00320435,
0.234,-0.00305176,
0.2345,-0.00442505,
0.235,-0.00320435,
0.2355,-0.0012207,
0.236,-0.00213623,
0.2365,-0.00427246,
0.237,-0.00564575,
0.2375,-0.00701904,
0.238,-0.0062561,
0.2385,-0.00457764,
0.239,-0.00473022,
0.2395,-0.00289917,
0.24,0,
0.2405,0,
0.241,-0.00320435,
0.2415,-0.00259399,
0.242,0.00152588,
0.2425,0.00350952,
0.243,0.00274658,
0.2435,0.00198364,
0.244,0.00289917,
0.2445,0.00137329,
0.245,0.00350952,
0.2455,0.00701904,
0.246,0.00564575,
0.2465,0.00167847,
0.247,0.00244141,
0.2475,0.00350952,
0.248,0.00106812,
0.2485,-0.000305176,
0.249,-0.000915527,
0.2495,0.000457764,
0.25,0,
0.2505,-0.000610352,
0.251,-0.000915527,
0.2515,-0.000915527,
0.252,-0.000915527,
0.2525,-0.00244141,
0.253,-0.00427246,
0.2535,-0.00259399,
0.254,-0.00137329,
0.2545,-0.000915527,
0.255,-0.000762939,
0.2555,0.000610352,
0.256,0.000152588,
0.2565,-0.000610352,
0.257,0.000305176,
0.2575,0.00289917,
0.258,0.0038147,
0.2585,0.00396729,
0.259,0.00396729,
0.2595,0.00274658,
0.26,0.00183105,
0.2605,0.00289917,
0.261,0.00259399,
0.2615,0.00183105,
0.262,0.000305176,
0.2625,-0.00305176,
0.263,-0.00244141,
0.2635,-0.00167847,
0.264,-0.00213623,
0.2645,-0.00152588,
0.265,-0.00228882,
0.2655,-0.00183105,
0.266,-0.00137329,
0.2665,-0.00106812,
0.267,0.000610352,
0.2675,0.00427246,
0.268,0.00350952,
0.2685,-0.000610352,
0.269,-0.000457764,
0.2695,0.000152588,
0.27,-0.00350952,
0.2705,-0.00640869,
0.271,-0.00778198,
0.2715,-0.00823975,
0.272,-0.00579834,
0.2725,-0.00228882,
0.273,-0.00137329,
0.2735,-0.000915527,
0.274,-0.000762939,
0.2745,-0.00228882,
0.275,-0.00457764,
0.2755,-0.00259399,
0.276,-0.00152588,
0.2765,-0.000762939,
0.277,0.000762939,
0.2775,0.000305176,
0.278,0.000610352,
0.2785,0.00137329,
0.279,0.000152588,
0.2795,-0.00320435,
0.28,-0.00106812,
0.2805,-0.000762939,
0.281,-0.00198364,
0.2815,0,
0.282,-0.000305176,
0.2825,-0.00167847,
0.283,-0.00167847,
0.2835,-0.0012207,
0.284,0.000305176,
0.2845,0.00167847,
0.285,0.00167847,
0.2855,0.000305176,
0.286,0.00198364,
0.2865,0.00488281,
0.287,0.00366211,
0.2875,-0.00198364,
0.288,-0.00595093,
0.2885,-0.00671387,
0.289,-0.00228882,
0.2895,-0.00320435,
0.29,-0.00350952,
0.2905,-0.00335693,
0.291,-0.000610352,
0.2915,-0.00183105,
0.292,-0.00701904,
0.2925,-0.00747681,
0.293,-0.00335693,
0.2935,0,
0.294,-0.000305176,
0.2945,-0.00167847,
0.295,-0.00457764,
0.2955,-0.00671387,
0.296,-0.00656128,
0.2965,-0.00595093,
0.297,-0.00442505,
0.2975,-0.00350952,
0.298,-0.00228882,
0.2985,0.000457764,
0.299,-0.0012207,
0.2995,-0.00305176,
0.3,-0.000915527,
0.3005,0.0012207,
0.301,0.00289917,
0.3015,0.00534058,
0.302,0.00778198,
0.3025,0.00610352,
0.303,0.00457764,
0.3035,0.00289917,
0.304,0.00183105,
0.3045,0.00183105,
0.305,0.000152588,
0.3055,0.000762939,
0.306,0.00152588,
0.3065,0.00137329,
0.307,0.00152588,
0.3075,0.00274658,
0.308,0.0038147,
0.3085,0.00396729,
0.309,0.00259399,
0.3095,0.00167847,
0.31,0.00289917,
0.3105,0.00259399,
0.311,0.00335693,
0.3115,0.0012207,
0.312,-0.000457764,
0.3125,0.000305176,
0.313,0,
0.3135,-0.000610352,
0.314,-0.000915527,
0.3145,-0.000915527,
0.315,-0.00228882,
0.3155,-0.00579834,
0.316,-0.00488281,
0.3165,-0.00366211,
0.317,-0.00595093,
0.3175,-0.00656128,
0.318,-0.00457764,
0.3185,-0.00350952,
0.319,-0.00320435,
0.3195,-0.00320435,
0.32,-0.00305176,
0.3205,-0.00335693,
0.321,-0.00320435,
0.3215,-0.00457764,
0.322,-0.00396729,
0.3225,-0.00488281,
0.323,-0.00564575,
0.3235,-0.00701904,
0.324,-0.00656128,
0.3245,-0.00473022,
0.325,-0.0038147,
0.3255,-0.00305176,
0.326,-0.00457764,
0.3265,-0.00396729,
0.327,-0.00213623,
0.3275,0.000305176,
0.328,0,
0.3285,0.000610352,
0.329,0.00259399,
0.3295,0.00213623,
0.33,0.00183105,
0.3305,0.00152588,
0.331,-0.000915527,
0.3315,-0.00274658,
0.332,0.000762939,
0.3325,0.000457764,
0.333,-0.00183105,
0.3335,-0.00442505,
0.334,-0.00411987,
0.3345,-0.00366211,
0.335,-0.00473022,
0.3355,-0.00549316,
0.336,-0.00549316,
0.3365,-0.00579834,
0.337,-0.00701904,
0.3375,-0.00427246,
0.338,-0.00305176,
0.3385,-0.00473022,
0.339,-0.00549316,
0.3395,-0.00564575,
0.34,-0.00564575,
0.3405,-0.00457764,
0.341,-0.00366211,
0.3415,-0.00473022,
0.342,-0.00793457,
0.3425,-0.0100708,
0.343,-0.00915527,
0.3435,-0.00701904,
0.344,-0.0062561,
0.3445,-0.00595093,
0.345,-0.00595093,
0.3455,-0.00579834,
0.346,-0.00610352,
0.3465,-0.00854492,
0.347,-0.00762939,
0.3475,-0.00473022,
0.348,-0.00350952,
0.3485,-0.00335693,
0.349,-0.00320435,
0.3495,-0.00335693,
0.35,-0.00473022,
0.3505,-0.00167847,
0.351,0.00198364,
0.3515,0.000915527,
0.352,-0.00183105,
0.3525,-0.00320435,
0.353,-0.00457764,
0.3535,-0.00579834,
0.354,-0.00457764,
0.3545,-0.0038147,
0.355,-0.00457764,
0.3555,-0.00549316,
0.356,-0.00473022,
0.3565,-0.00350952,
0.357,-0.00320435,
0.3575,-0.00335693,
0.358,-0.000915527,
0.3585,0.00350952,
0.359,0.00350952,
0.3595,0.000762939,
0.36,0.000762939,
0.3605,-0.000152588,
0.361,0.00183105,
0.3615,-0.000457764,
0.362,-0.00396729,
0.3625,-0.00411987,
0.363,-0.00350952,
0.3635,-0.00320435,
0.364,-0.00350952,
0.3645,-0.000762939,
0.365,-0.00167847,
0.3655,-0.00396729,
0.366,-0.00534058,
0.3665,-0.00457764,
0.367,-0.00228882,
0.3675,-0.00244141,
0.368,-0.00198364,
0.3685,0.00137329,
0.369,0.00335693,
0.3695,0.00518799,
0.37,0.00915527,
0.3705,0.00946045,
0.371,0.00640869,
0.3715,0.00320435,
0.372,0.00320435,
0.3725,0.0038147,
0.373,0.00259399,
0.3735,0.000610352,
0.374,-0.00320435,
0.3745,-0.00411987,
0.375,-0.00488281,
0.3755,-0.00442505,
0.376,-0.000915527,
0.3765,0.00396729,
0.377,0.00320435,
0.3775,0.000915527,
0.378,0.00198364,
0.3785,0.00350952,
0.379,0.00549316,
0.3795,0.00854492,
0.38,0.0105286,
0.3805,0.00991821,
0.381,0.00778198,
0.3815,0.00671387,
0.382,0.00259399,
0.3825,0,
0.383,0.000610352,
0.3835,0.000305176,
0.384,-0.000762939,
0.3845,0.000610352,
0.385,0.00274658,
0.3855,0.00106812,
0.386,-0.000305176,
0.3865,-0.0012207,
0.387,-0.00228882,
0.3875,-0.00213623,
0.388,-0.00106812,
0.3885,-0.00228882,
0.389,-0.00289917,
0.3895,-0.00457764,
0.39,-0.00701904,
0.3905,-0.00823975,
0.391,-0.0106812,
0.3915,-0.0112915,
0.392,-0.0117493,
0.3925,-0.0088501,
0.393,-0.00778198,
0.3935,-0.00808716,
0.394,-0.00656128,
0.3945,-0.00991821,
0.395,-0.012207,
0.3955,-0.0112915,
0.396,-0.00823975,
0.3965,-0.0062561,
0.397,-0.00473022,
0.3975,-0.00488281,
0.398,-0.00778198,
0.3985,-0.00900269,
0.399,-0.00869751,
0.3995,-0.00808716,
0.4,-0.00823975,
0.4005,-0.00549316,
0.401,-0.00534058,
0.4015,-0.00671387,
0.402,-0.0105286,
0.4025,-0.0111389,
0.403,-0.0111389,
0.4035,-0.0105286,
0.404,-0.0109863,
0.4045,-0.00930786,
0.405,-0.00442505,
0.4055,-0.00457764,
0.406,-0.0038147,
0.4065,-0.00213623,
0.407,-0.000915527,
0.4075,-0.00228882,
0.408,-0.00427246,
0.4085,-0.00793457,
0.409,-0.0100708,
0.4095,-0.00778198,
0.41,-0.0105286,
0.4105,-0.0138855,
0.411,-0.0126648,
0.4115,-0.0108337,
0.412,-0.0109863,
0.4125,-0.0117493,
0.413,-0.0102234,
0.4135,-0.00717163,
0.414,-0.00900269,
0.4145,-0.0102234,
0.415,-0.00762939,
0.4155,-0.00640869,
0.416,-0.00427246,
0.4165,0.000457764,
0.417,0.00762939,
0.4175,0.0120544,
0.418,0.0164795,
0.4185,0.0192261,
0.419,0.0166321,
0.4195,0.00900269,
0.42,-0.000305176,
0.4205,-0.00732422,
0.421,-0.0128174,
0.4215,-0.0177002,
0.422,-0.0227356,
0.4225,-0.0259399,
0.423,-0.020752,
0.4235,-0.0125122,
0.424,-0.00915527,
0.4245,-0.00701904,
0.425,-0.00473022,
0.4255,-0.000915527,
0.426,0.00259399,
0.4265,0.00259399,
0.427,-0.0012207,
0.4275,-0.00396729,
0.428,-0.00366211,
0.4285,-0.000915527,
0.429,-0.000305176,
0.4295,-0.00213623,
0.43,-0.00457764,
0.4305,-0.00534058,
0.431,-0.00427246,
0.4315,-0.000915527,
0.432,0.00518799,
0.4325,0.00534058,
0.433,0.00305176,
0.4335,0.00350952,
0.434,0.0050354,
0.4345,0.00610352,
0.435,0.0038147,
0.4355,0.00106812,
0.436,-0.00350952,
0.4365,-0.0038147,
0.437,-0.00747681,
0.4375,-0.00869751,
0.438,-0.00823975,
0.4385,-0.00671387,
0.439,-0.00717163,
0.4395,-0.00946045,
0.44,-0.00915527,
0.4405,-0.00579834,
0.441,-0.00259399,
0.4415,-0.00137329,
0.442,-0.000915527,
0.4425,0.000457764,
0.443,-0.000152588,
0.4435,0.000457764,
0.444,0.00259399,
0.4445,0.00244141,
0.445,0.000457764,
0.4455,-0.00183105,
0.446,-0.00305176,
0.4465,-0.00320435,
0.447,-0.00198364,
0.4475,-0.0012207,
0.448,0.00198364,
0.4485,0.00244141,
0.449,0.000457764,
0.4495,-0.000610352,
0.45,0.000610352,
0.4505,0.00259399,
0.451,0.00244141,
0.4515,0.00305176,
0.452,0.0012207,
0.4525,-0.000457764,
0.453,-0.00106812,
0.4535,-0.00213623,
0.454,-0.00595093,
0.4545,-0.00640869,
0.455,-0.00473022,
0.4555,-0.00228882,
0.456,-0.00259399,
0.4565,-0.00289917,
0.457,-0.000457764,
0.4575,0.00518799,
0.458,0.00808716,
0.4585,0.00762939,
0.459,0.00534058,
0.4595,0.00442505,
0.46,0.00411987,
0.4605,0.00396729,
0.461,0.00396729,
0.4615,0.000762939,
0.462,-0.00305176,
0.4625,-0.00671387,
0.463,-0.00900269,
0.4635,-0.00762939,
0.464,-0.00518799,
0.4645,-0.00366211,
0.465,-0.000915527,
0.4655,0.00244141,
0.466,0.00366211,
0.4665,0.00411987,
0.467,0.00534058,
0.4675,0.00610352,
0.468,0.0038147,
0.4685,0.00213623,
0.469,0.00183105,
0.4695,0.00320435,
0.47,0.00366211,
0.4705,0.00411987,
0.471,0.00396729,
0.4715,0.00289917,
0.472,0.00335693,
0.4725,0.0038147,
0.473,0.00106812,
0.4735,0.00213623,
0.474,0.00228882,
0.4745,0.00289917,
0.475,0.00534058,
0.4755,0.00457764,
0.476,0.00320435,
0.4765,0.00442505,
0.477,0.00442505,
0.4775,0.00137329,
0.478,-0.00183105,
0.4785,-0.00579834,
0.479,-0.00915527,
0.4795,-0.00869751,
0.48,-0.00717163,
0.4805,-0.00579834,
0.481,-0.00320435,
0.4815,-0.00152588,
0.482,-0.000915527,
0.4825,-0.000610352,
0.483,-0.00228882,
0.4835,-0.00564575,
0.484,-0.0062561,
0.4845,-0.00732422,
0.485,-0.00534058,
0.4855,-0.00244141,
0.486,-0.00396729,
0.4865,-0.00518799,
0.487,-0.00457764,
0.4875,-0.00335693,
0.488,-0.00335693,
0.4885,-0.00335693,
0.489,-0.00198364,
0.4895,-0.00259399,
0.49,-0.00305176,
0.4905,-0.00442505,
0.491,-0.00595093,
0.4915,-0.00686646,
0.492,-0.00671387,
0.4925,-0.00610352,
0.493,-0.00427246,
0.4935,-0.00656128,
0.494,-0.00900269,
0.4945,-0.00900269,
0.495,-0.00320435,
0.4955,-0.000915527,
0.496,0.000610352,
0.4965,0.00259399,
0.497,0.00244141,
0.4975,0.00152588,
0.498,0.000457764,
0.4985,-0.00228882,
0.499,-0.00289917,
0.4995,-0.00320435,
0.5,-0.00335693,
0.5005,-0.00350952,
0.501,-0.00198364,
0.5015,-0.00106812,
0.502,-0.00213623,
0.5025,-0.00305176,
0.503,-0.00350952,
0.5035,-0.00320435,
0.504,-0.00335693,
0.5045,-0.00442505,
0.505,-0.00396729,
0.5055,-0.00198364,
0.506,-0.0038147,
0.5065,-0.00396729,
0.507,-0.00198364,
0.5075,-0.00228882,
0.508,-0.00305176,
0.5085,-0.00350952,
0.509,-0.00350952,
0.5095,-0.00335693,
0.51,-0.00183105,
0.5105,0.00320435,
0.511,0.0100708,
0.5115,0.0141907,
0.512,0.0119019,
0.5125,0.00823975,
0.513,0.00518799,
0.5135,0.00549316,
0.514,0.00762939,
0.5145,0.00427246,
0.515,0.00244141,
0.5155,0.00320435,
0.516,0.00244141,
0.5165,0.00305176,
0.517,0.00518799,
0.5175,0.00610352,
0.518,0.00534058,
0.5185,0.00427246,
0.519,0.00152588,
0.5195,0.00244141,
0.52,0.00198364,
0.5205,0.00198364,
0.521,-0.000915527,
0.5215,-0.00411987,
0.522,-0.00137329,
0.5225,0.000762939,
0.523,0.0012207,
0.5235,0.000457764,
0.524,0.000915527,
0.5245,-0.000305176,
0.525,0.000762939,
0.5255,0.00152588,
0.526,0.00289917,
0.5265,0.0038147,
0.527,0.00274658,
0.5275,-0.00228882,
0.528,-0.00335693,
0.5285,-0.00320435,
0.529,-0.00595093,
0.5295,-0.0106812,
0.53,-0.0123596,
0.5305,-0.0131226,
0.531,-0.0128174,
0.5315,-0.0115967,
0.532,-0.00564575,
0.5325,-0.00183105,
0.533,-0.00198364,
0.5335,-0.00305176,
0.534,-0.00610352,
0.5345,-0.00488281,
0.535,-0.00518799,
0.5355,-0.00793457,
0.536,-0.00610352,
0.5365,-0.00549316,
0.537,-0.00686646,
0.5375,-0.00656128,
0.538,-0.00732422,
0.5385,-0.00671387,
0.539,-0.00732422,
0.5395,-0.00549316,
0.54,-0.00534058,
0.5405,-0.00808716,
0.541,-0.00732422,
0.5415,-0.00473022,
0.542,-0.00671387,
0.5425,-0.00656128,
0.543,-0.00717163,
0.5435,-0.00778198,
0.544,-0.00823975,
0.5445,-0.00839233,
0.545,-0.00823975,
0.5455,-0.0109863,
0.546,-0.0111389,
0.5465,-0.00915527,
0.547,-0.00991821,
0.5475,-0.00915527,
0.548,-0.00976563,
0.5485,-0.00915527,
0.549,-0.00854492,
0.5495,-0.00717163,
0.55,-0.00595093,
0.5505,-0.00411987,
0.551,-0.00488281,
0.5515,-0.00701904,
0.552,-0.00671387,
0.5525,-0.00579834,
0.553,-0.00442505,
0.5535,-0.000762939,
0.554,0.00228882,
0.5545,0.00350952,
0.555,0.00396729,
0.5555,0.00274658,
0.556,0.000610352,
0.5565,0.000915527,
0.557,0.0012207,
0.5575,0.00289917,
0.558,0.00244141,
0.5585,0.00198364,
0.559,0.000152588,
0.5595,-0.00610352,
0.56,-0.0151062,
0.5605,-0.0263977,
0.561,-0.0341797,
0.5615,-0.0344849,
0.562,-0.0263977,
0.5625,-0.017395,
0.563,-0.0126648,
0.5635,-0.00915527,
0.564,-0.00564575,
0.5645,-0.00244141,
0.565,-0.00106812,
0.5655,0.000610352,
0.566,0.0012207,
0.5665,-0.00137329,
0.567,-0.00289917,
0.5675,-0.00198364,
0.568,-0.00106812,
0.5685,-0.00244141,
0.569,-0.00701904,
0.5695,-0.0100708,
0.57,-0.0105286,
0.5705,-0.00915527,
0.571,-0.00823975,
0.5715,-0.00549316,
0.572,-0.00473022,
0.5725,-0.00427246,
0.573,-0.00228882,
0.5735,-0.00244141,
0.574,-0.00305176,
0.5745,-0.00305176,
0.575,-0.00183105,
0.5755,0.00198364,
0.576,0.0038147,
0.5765,0.00549316,
0.577,0.00640869,
0.5775,0.00656128,
0.578,0.00656128,
0.5785,0.00488281,
0.579,0.00396729,
0.5795,0.00549316,
0.58,0.00610352,
0.5805,0.00900269,
0.581,0.00961304,
0.5815,0.00747681,
0.582,0.00534058,
0.5825,0.00411987,
0.583,0.00549316,
0.5835,0.00869751,
0.584,0.0123596,
0.5845,0.0120544,
0.585,0.0100708,
0.5855,0.010376,
0.586,0.00808716,
0.5865,0.00564575,
0.587,0.00396729,
0.5875,0.00259399,
0.588,0.000610352,
0.5885,-0.00106812,
0.589,-0.00320435,
0.5895,-0.00289917,
0.59,0,
0.5905,0.00396729,
0.591,0.00595093,
0.5915,0.00534058,
0.592,0.00442505,
0.5925,0.00274658,
0.593,0.00289917,
0.5935,0.00534058,
0.594,0.00610352,
0.5945,0.00808716,
0.595,0.00732422,
0.5955,0.00671387,
0.596,0.00518799,
0.5965,0.00183105,
0.597,-0.000762939,
0.5975,0.000457764,
0.598,0.000152588,
0.5985,-0.000762939,
0.599,0.000152588,
0.5995,0.00137329,
0.6,0.00167847,
0.6005,0.00152588,
0.601,-0.00152588,
0.6015,-0.00274658,
0.602,-0.000457764,
0.6025,0.0012207,
0.603,0.00152588,
0.6035,0.000305176,
0.604,-0.000457764,
0.6045,-0.00213623,
0.605,-0.00183105,
0.6055,-0.00396729,
0.606,-0.00396729,
0.6065,-0.00640869,
0.607,-0.00793457,
0.6075,-0.00656128,
0.608,-0.00732422,
0.6085,-0.00671387,
0.609,-0.0062561,
0.6095,-0.00579834,
0.61,-0.00579834,
0.6105,-0.00564575,
0.611,-0.00564575,
0.6115,-0.00579834,
0.612,-0.00610352,
0.6125,-0.00686646,
0.613,-0.00640869,
0.6135,-0.00610352,
0.614,-0.00457764,
0.6145,-0.00213623,
0.615,-0.00244141,
0.6155,-0.00427246,
0.616,-0.00534058,
0.6165,-0.00396729,
0.617,-0.00808716,
0.6175,-0.0112915,
0.618,-0.0100708,
0.6185,-0.0088501,
0.619,-0.00823975,
0.6195,-0.00823975,
0.62,-0.00701904,
0.6205,-0.00579834,
0.621,-0.00564575,
0.6215,-0.00823975,
0.622,-0.00747681,
0.6225,-0.00488281,
0.623,-0.00640869,
0.6235,-0.00518799,
0.624,-0.0050354,
0.6245,-0.00686646,
0.625,-0.00656128,
0.6255,-0.00473022,
0.626,-0.00350952,
0.6265,-0.00350952,
0.627,-0.00595093,
0.6275,-0.010376,
0.628,-0.0125122,
0.6285,-0.0119019,
0.629,-0.0125122,
0.6295,-0.00671387,
0.63,-0.00305176,
0.6305,-0.00106812,
0.631,-0.00198364,
0.6315,-0.00335693,
0.632,-0.00473022,
0.6325,-0.0012207,
0.633,0.000915527,
0.6335,-0.00152588,
0.634,-0.00289917,
0.6345,-0.000610352,
0.635,0.00244141,
0.6355,0.00244141,
0.636,0.00137329,
0.6365,-0.00137329,
0.637,-0.00152588,
0.6375,-0.00274658,
0.638,-0.00442505,
0.6385,-0.00411987,
0.639,-0.00350952,
0.6395,-0.000915527,
0.64,-0.000762939,
0.6405,-0.00610352,
0.641,-0.00946045,
0.6415,-0.00656128,
0.642,-0.00137329,
0.6425,-0.000610352,
0.643,-0.00213623,
0.6435,-0.00183105,
0.644,0.000305176,
0.6445,0.00152588,
0.645,0.00167847,
0.6455,0.00137329,
0.646,-0.00137329,
0.6465,-0.00274658,
0.647,-0.00488281,
0.6475,-0.00534058,
0.648,-0.00610352,
0.6485,-0.00564575,
0.649,-0.00442505,
0.6495,-0.00488281,
0.65,-0.00427246,
0.6505,-0.00350952,
0.651,-0.00167847,
0.6515,0.00167847,
0.652,0.00228882,
0.6525,0.00183105,
0.653,0.00396729,
0.6535,0.00427246,
0.654,0.00152588,
0.6545,0.000915527,
0.655,-0.000305176,
0.6555,-0.00198364,
0.656,-0.000457764,
0.6565,0.00396729,
0.657,0.00595093,
0.6575,0.00640869,
0.658,0.00534058,
0.6585,0.00427246,
0.659,0.00396729,
0.6595,0.00137329,
0.66,-0.000305176,
0.6605,0.00198364,
0.661,0.00366211,
0.6615,0.00259399,
0.662,0.00183105,
0.6625,0.00274658,
0.663,0.00656128,
0.6635,0.00839233,
0.664,0.00747681,
0.6645,0.00930786,
0.665,0.0108337,
0.6655,0.00839233,
0.666,0.00549316,
0.6665,0.00686646,
0.667,0.00686646,
0.6675,0.0038147,
0.668,0.00335693,
0.6685,0.00259399,
0.669,0.000152588,
0.6695,-0.000610352,
0.67,-0.000915527,
0.6705,-0.00549316,
0.671,-0.00610352,
0.6715,-0.00747681,
0.672,-0.00640869,
0.6725,-0.00473022,
0.673,-0.00640869,
0.6735,-0.00350952,
0.674,0.00259399,
0.6745,0.00152588,
0.675,-0.00427246,
0.6755,-0.00747681,
0.676,-0.00961304,
0.6765,-0.0131226,
0.677,-0.00961304,
0.6775,-0.00534058,
0.678,-0.00198364,
0.6785,0,
0.679,0.00534058,
0.6795,0.00671387,
0.68,0.000610352,
0.6805,-0.00564575,
0.681,-0.0050354,
0.6815,-0.000915527,
0.682,-0.00167847,
0.6825,-0.00305176,
0.683,0.000610352,
0.6835,0.0050354,
0.684,0.0062561,
0.6845,0.00640869,
0.685,0.00640869,
0.6855,0.00198364,
0.686,-0.000457764,
0.6865,-0.00518799,
0.687,-0.0088501,
0.6875,-0.0117493,
0.688,-0.0115967,
0.6885,-0.00686646,
0.689,-0.00518799,
0.6895,-0.00564575,
0.69,-0.00457764,
0.6905,-0.00350952,
0.691,-0.00457764,
0.6915,-0.00411987,
0.692,-0.00350952,
0.6925,-0.00335693,
0.693,-0.00473022,
0.6935,-0.00823975,
0.694,-0.0105286,
0.6945,-0.0119019,
0.695,-0.0112915,
0.6955,-0.00823975,
0.696,-0.000457764,
0.6965,0.00732422,
0.697,0.0119019,
0.6975,0.0134277,
0.698,0.0138855,
0.6985,0.01297,
0.699,0.0117493,
0.6995,0.00976563,
0.7,0.0062561,
0.7005,-0.000915527,
0.701,-0.00457764,
0.7015,-0.00396729,
0.702,-0.00656128,
0.7025,-0.00732422,
0.703,-0.00808716,
0.7035,-0.00808716,
0.704,-0.00686646,
0.7045,-0.00595093,
0.705,-0.00549316,
0.7055,-0.00595093,
0.706,-0.00869751,
0.7065,-0.00854492,
0.707,-0.00717163,
0.7075,-0.0062561,
0.708,-0.00595093,
0.7085,-0.00579834,
0.709,-0.00289917,
0.7095,0,
0.71,-0.000305176,
0.7105,-0.00350952,
0.711,-0.00411987,
0.7115,-0.0050354,
0.712,-0.00534058,
0.7125,-0.00289917,
0.713,-0.00137329,
0.7135,-0.00228882,
0.714,-0.00320435,
0.7145,-0.00473022,
0.715,-0.00976563,
0.7155,-0.0106812,
0.716,-0.0050354,
0.7165,-0.00198364,
0.717,-0.00488281,
0.7175,-0.00579834,
0.718,-0.00610352,
0.7185,-0.00549316,
0.719,-0.00152588,
0.7195,-0.000457764,
0.72,-0.000610352,
0.7205,-0.000915527,
0.721,-0.00213623,
0.7215,-0.00305176,
0.722,-0.00335693,
0.7225,-0.00473022,
0.723,-0.00564575,
0.7235,-0.00839233,
0.724,-0.00732422,
0.7245,-0.00610352,
0.725,-0.00579834,
0.7255,-0.00457764,
0.726,-0.0062561,
0.7265,-0.010376,
0.727,-0.00961304,
0.7275,-0.00732422,
0.728,-0.0088501,
0.7285,-0.00579834,
0.729,-0.00106812,
0.7295,-0.000457764,
0.73,-0.00183105,
0.7305,-0.000457764,
0.731,-0.000457764,
0.7315,-0.00366211,
0.732,-0.00259399,
0.7325,0.00137329,
0.733,-0.000762939,
0.7335,-0.00396729,
0.734,-0.00411987,
0.7345,-0.00335693,
0.735,-0.00335693,
0.7355,-0.00198364,
0.736,-0.0012207,
0.7365,-0.00518799,
0.737,-0.0062561,
0.7375,-0.00320435,
0.738,-0.00274658,
0.7385,-0.00442505,
0.739,-0.00640869,
0.7395,-0.00915527,
0.74,-0.00869751,
0.7405,-0.00717163,
0.741,-0.00747681,
0.7415,-0.0109863,
0.742,-0.0114441,
0.7425,-0.00946045,
0.743,-0.00839233,
0.7435,-0.00839233,
0.744,-0.00686646,
0.7445,-0.00762939,
0.745,-0.00762939,
0.7455,-0.00274658,
0.746,-0.000915527,
0.7465,-0.00213623,
0.747,-0.000457764,
0.7475,-0.000305176,
0.748,-0.00366211,
0.7485,-0.00976563,
0.749,-0.0112915,
0.7495,-0.00686646,
0.75,-0.00534058,
0.7505,-0.00106812,
0.751,0.00213623,
0.7515,0.00198364,
0.752,0.00335693,
0.7525,0.00534058,
0.753,0.0062561,
0.7535,0.00808716,
0.754,0.00762939,
0.7545,0.00534058,
0.755,0.00274658,
0.7555,0.000610352,
0.756,-0.00534058,
0.7565,-0.00869751,
0.757,-0.00473022,
0.7575,-0.00198364,
0.758,-0.00106812,
0.7585,-0.00106812,
0.759,-0.00213623,
0.7595,-0.00183105,
0.76,0.000305176,
0.7605,0.0012207,
0.761,0.00305176,
0.7615,0.000915527,
0.762,-0.000457764,
0.7625,0.000610352,
0.763,0.00274658,
0.7635,0.0038147,
0.764,0.00442505,
0.7645,0.00549316,
0.765,0.0050354,
0.7655,0.00427246,
0.766,0.00549316,
0.7665,0.00320435,
0.767,0.00198364,
0.7675,0.00305176,
0.768,0.00335693,
0.7685,-0.000305176,
0.769,-0.00518799,
0.7695,-0.00320435,
0.77,0.00167847,
0.7705,0.0050354,
0.771,0.00335693,
0.7715,0.00366211,
0.772,0.00259399,
0.7725,-0.000915527,
0.773,-0.00411987,
0.7735,-0.00259399,
0.774,0,
0.7745,0,
0.775,-0.000762939,
0.7755,-0.00228882,
0.776,-0.00305176,
0.7765,-0.00228882,
0.777,0.000305176,
0.7775,0.00137329,
0.778,-0.00274658,
0.7785,-0.00808716,
0.779,-0.0088501,
0.7795,-0.00396729,
0.78,-0.00167847,
0.7805,-0.0012207,
0.781,-0.000915527,
0.7815,-0.00106812,
0.782,-0.000915527,
0.7825,-0.00106812,
0.783,-0.00198364,
0.7835,-0.00411987,
0.784,-0.00244141,
0.7845,-0.00289917,
0.785,-0.00305176,
0.7855,-0.00167847,
0.786,-0.00106812,
0.7865,0.000610352,
0.787,0.0012207,
0.7875,-0.00152588,
0.788,-0.00411987,
0.7885,-0.00427246,
0.789,-0.00183105,
0.7895,0.000457764,
0.79,-0.000152588,
0.7905,-0.00335693,
0.791,-0.00366211,
0.7915,-0.000762939,
0.792,0.000915527,
0.7925,0.000305176,
0.793,-0.00198364,
0.7935,-0.00320435,
0.794,-0.00488281,
0.7945,-0.00564575,
0.795,-0.00686646,
0.7955,-0.00534058,
0.796,-0.00488281,
0.7965,-0.00610352,
0.797,-0.00869751,
0.7975,-0.00869751,
0.798,-0.00534058,
0.7985,-0.000915527,
0.799,-0.000610352,
0.7995,0.000762939,
0.8,0.00274658,
0.8005,0.00518799,
0.801,0.00457764,
0.8015,0.00274658,
0.802,0.00289917,
0.8025,0.00106812,
0.803,0.000762939,
0.8035,-0.00152588,
0.804,-0.000457764,
0.8045,-0.000457764,
0.805,-0.00366211,
0.8055,-0.0038147,
0.806,-0.00213623,
0.8065,-0.000915527,
0.807,-0.0038147,
0.8075,-0.00564575,
0.808,-0.00564575,
0.8085,-0.00427246,
0.809,-0.00350952,
0.8095,-0.00488281,
0.81,-0.00671387,
0.8105,-0.0062561,
0.811,-0.00335693,
0.8115,-0.00289917,
0.812,-0.00320435,
0.8125,-0.000610352,
0.813,-0.000610352,
0.8135,-0.00488281,
0.814,-0.00442505,
0.8145,-0.0038147,
0.815,-0.00457764,
0.8155,-0.00656128,
0.816,-0.00778198,
0.8165,-0.00549316,
0.817,-0.00366211,
0.8175,-0.00350952,
0.818,-0.00610352,
0.8185,-0.00793457,
0.819,-0.00946045,
0.8195,-0.00900269,
0.82,-0.00823975,
0.8205,-0.00549316,
0.821,-0.00228882,
0.8215,-0.00106812,
0.822,-0.00366211,
0.8225,-0.0038147,
0.823,-0.00213623,
0.8235,0.000457764,
0.824,0.00274658,
0.8245,0.00396729,
0.825,0.00106812,
0.8255,-0.000457764,
0.826,-0.00183105,
0.8265,-0.00732422,
0.827,-0.00991821,
0.8275,-0.0117493,
0.828,-0.0126648,
0.8285,-0.010376,
0.829,-0.0088501,
0.8295,-0.00701904,
0.83,-0.00442505,
0.8305,-0.00335693,
0.831,-0.0050354,
0.8315,-0.00701904,
0.832,-0.00778198,
0.8325,-0.00411987,
0.833,-0.00274658,
0.8335,-0.00167847,
0.834,-0.00137329,
0.8345,-0.00335693,
0.835,-0.00366211,
0.8355,0.000457764,
0.836,0.00198364,
0.8365,-0.000915527,
0.837,-0.00305176,
0.8375,-0.000457764,
0.838,0.00244141,
0.8385,0.00350952,
0.839,0.00427246,
0.8395,0.00259399,
0.84,0.00335693,
0.8405,0.00366211,
0.841,0.00350952,
0.8415,0.0038147,
0.842,0.00244141,
0.8425,0.00305176,
0.843,0.00366211,
0.8435,0.00701904,
0.844,0.00854492,
0.8445,0.00732422,
0.845,0.0050354,
0.8455,0.00106812,
0.846,-0.00183105,
0.8465,-0.00167847,
0.847,0.00152588,
0.8475,0.00335693,
0.848,0.0012207,
0.8485,-0.000305176,
0.849,0.000610352,
0.8495,0.000305176,
0.85,-0.000610352,
0.8505,0.00167847,
0.851,-0.000915527,
0.8515,-0.00244141,
0.852,-0.00335693,
0.8525,-0.00335693,
0.853,-0.0062561,
0.8535,-0.00656128,
0.854,-0.00579834,
0.8545,-0.00411987,
0.855,-0.00106812,
0.8555,-0.00213623,
0.856,-0.00305176,
0.8565,-0.00167847,
0.857,0.00152588,
0.8575,0.000762939,
0.858,-0.00198364,
0.8585,-0.00335693,
0.859,-0.00335693,
0.8595,-0.00473022,
0.86,-0.00564575,
0.8605,-0.00152588,
0.861,-0.00167847,
0.8615,-0.00396729,
0.862,-0.00137329,
0.8625,0.000762939,
0.863,0.00259399,
0.8635,0.00274658,
0.864,0.000610352,
0.8645,0.000762939,
0.865,-0.00152588,
0.8655,-0.00183105,
0.866,-0.0012207,
0.8665,-0.00350952,
0.867,-0.00274658,
0.8675,-0.00289917,
0.868,-0.00289917,
0.8685,-0.00198364,
0.869,-0.00289917,
0.8695,-0.00427246,
0.87,-0.00701904,
0.8705,-0.00930786,
0.871,-0.0106812,
0.8715,-0.0119019,
0.872,-0.0100708,
0.8725,-0.0112915,
0.873,-0.00976563,
0.8735,-0.00717163,
0.874,-0.00473022,
0.8745,-0.00350952,
0.875,-0.00167847,
0.8755,0.000457764,
0.876,0.000152588,
0.8765,0.000610352,
0.877,0,
0.8775,0.000610352,
0.878,0.00137329,
0.8785,0.0012207,
0.879,0.00167847,
0.8795,-0.00152588,
0.88,-0.00564575,
0.8805,-0.00350952,
0.881,0,
0.8815,0.00106812,
0.882,0.00305176,
0.8825,0.00549316,
0.883,0.00778198,
0.8835,0.00732422,
0.884,0.00686646,
0.8845,0.00793457,
0.885,0.00732422,
0.8855,0.00793457,
0.886,0.00564575,
0.8865,0.00274658,
0.887,0.000762939,
0.8875,0.0050354,
0.888,0.00793457,
0.8885,0.00411987,
0.889,-0.00259399,
0.8895,-0.0106812,
0.89,-0.01297,
0.8905,-0.0088501,
0.891,-0.00518799,
0.8915,-0.00534058,
0.892,-0.00656128,
0.8925,-0.0038147,
0.893,-0.00167847,
0.8935,-0.0012207,
0.894,-0.00106812,
0.8945,-0.000915527,
0.895,-0.000915527,
0.8955,-0.000915527,
0.896,-0.000915527,
0.8965,-0.00350952,
0.897,-0.00564575,
0.8975,-0.00305176,
0.898,-0.00427246,
0.8985,-0.00686646,
0.899,-0.00778198,
0.8995,-0.00701904,
0.9,-0.00595093,
0.9005,-0.00579834,
0.901,-0.00564575,
0.9015,-0.00595093,
0.902,-0.00595093,
0.9025,-0.00701904,
0.903,-0.00534058,
0.9035,-0.00808716,
0.904,-0.00869751,
0.9045,-0.00717163,
0.905,-0.00869751,
0.9055,-0.00442505,
0.906,-0.000305176,
0.9065,0,
0.907,-0.00213623,
0.9075,-0.00442505,
0.908,-0.00259399,
0.9085,0.00289917,
0.909,0.00427246,
0.9095,0.0012207,
0.91,0.00274658,
0.9105,0.00762939,
0.911,0.00915527,
0.9115,0.00762939,
0.912,0.0062561,
0.9125,0.00350952,
0.913,0.0050354,
0.9135,0.00473022,
0.914,0.00411987,
0.9145,0.000915527,
0.915,-0.00350952,
0.9155,-0.00549316,
0.916,-0.00595093,
0.9165,-0.0102234,
0.917,-0.0138855,
0.9175,-0.0140381,
0.918,-0.0117493,
0.9185,-0.00930786,
0.919,-0.00396729,
0.9195,0,
0.92,0.00564575,
0.9205,0.0109863,
0.921,0.0088501,
0.9215,0.00396729,
0.922,0.00320435,
0.9225,0.00213623,
0.923,-0.0012207,
0.9235,-0.00518799,
0.924,-0.00656128,
0.9245,-0.00732422,
0.925,-0.00793457,
0.9255,-0.00518799,
0.926,-0.00244141,
0.9265,-0.00228882,
0.927,-0.00305176,
0.9275,-0.00350952,
0.928,-0.00198364,
0.9285,-0.00396729,
0.929,-0.00839233,
0.9295,-0.0132751,
0.93,-0.0163269,
0.9305,-0.0131226,
0.931,-0.00991821,
0.9315,-0.00701904,
0.932,-0.00488281,
0.9325,-0.00488281,
0.933,-0.00244141,
0.9335,0.00152588,
0.934,0.00183105,
0.9345,0.000457764,
0.935,-0.000610352,
0.9355,-0.00228882,
0.936,-0.00198364,
0.9365,-0.000915527,
0.937,-0.000915527,
0.9375,-0.00213623,
0.938,-0.00442505,
0.9385,-0.00534058,
0.939,-0.00457764,
0.9395,-0.00457764,
0.94,-0.00396729,
0.9405,-0.00366211,
0.941,-0.00350952,
0.9415,-0.00457764,
0.942,-0.00686646,
0.9425,-0.00701904,
0.943,-0.00732422,
0.9435,-0.0106812,
0.944,-0.00930786,
0.9445,-0.00701904,
0.945,-0.00473022,
0.9455,-0.00488281,
0.946,-0.00854492,
0.9465,-0.00854492,
0.947,-0.00839233,
0.9475,-0.00976563,
0.948,-0.0088501,
0.9485,-0.00564575,
0.949,-0.00213623,
0.9495,-0.00228882,
0.95,-0.00320435,
0.9505,-0.00335693,
0.951,-0.00473022,
0.9515,-0.00289917,
0.952,-0.00259399,
0.9525,-0.00457764,
0.953,-0.00701904,
0.9535,-0.00961304,
0.954,-0.0120544,
0.9545,-0.0112915,
0.955,-0.0106812,
0.9555,-0.0123596,
0.956,-0.0126648,
0.9565,-0.0100708,
0.957,-0.00717163,
0.9575,-0.00289917,
0.958,0,
0.9585,0.00137329,
0.959,-0.000305176,
0.9595,-0.00640869,
0.96,-0.0112915,
0.9605,-0.00976563,
0.961,-0.00717163,
0.9615,-0.00305176,
0.962,0.00183105,
0.9625,0.00518799,
0.963,0.00595093,
0.9635,0.00640869,
0.964,0.00640869,
0.9645,0.00442505,
0.965,0.00137329,
0.9655,-0.00198364,
0.966,-0.00289917,
0.9665,-0.00198364,
0.967,-0.00274658,
0.9675,-0.00457764,
0.968,-0.00411987,
0.9685,-0.0050354,
0.969,-0.00411987,
0.9695,-0.0038147,
0.97,-0.00350952,
0.9705,-0.0038147,
0.971,-0.00152588,
0.9715,0.00198364,
0.972,0.00335693,
0.9725,0.00549316,
0.973,0.00762939,
0.9735,0.00732422,
0.974,0.00686646,
0.9745,0.00778198,
0.975,0.00732422,
0.9755,0.00350952,
0.976,-0.00411987,
0.9765,-0.0120544,
0.977,-0.0161743,
0.9775,-0.0163269,
0.978,-0.0131226,
0.9785,-0.00946045,
0.979,-0.00686646,
0.9795,-0.00350952,
0.98,-0.00289917,
0.9805,-0.00289917,
0.981,0.00106812,
0.9815,0.00473022,
0.982,0.00442505,
0.9825,0.00274658,
0.983,0.00183105,
0.9835,0.00274658,
0.984,0.00213623,
0.9845,0.00137329,
0.985,-0.00305176,
0.9855,-0.00640869,
0.986,-0.00686646,
0.9865,-0.00610352,
0.987,-0.00549316,
0.9875,-0.00305176,
0.988,-0.0038147,
0.9885,-0.00228882,
0.989,0.00320435,
0.9895,0.00427246,
0.99,0.00411987,
0.9905,0.0038147,
0.991,0.00106812,
0.9915,-0.00213623,
0.992,-0.00427246,
0.9925,-0.00213623,
0.993,0.00152588,
0.9935,0.00488281,
0.994,0.00488281,
0.9945,0.00427246,
0.995,0.00427246,
0.9955,0.0012207,
0.996,-0.00335693,
0.9965,-0.0050354,
0.997,-0.0012207,
0.9975,0.00228882,
0.998,0.0038147,
0.9985,0.00701904,
0.999,0.00686646,
0.9995,0.00656128,
1,0.00671387,
1.0005,0.00793457,
1.001,0.00732422,
1.0015,0.0038147,
1.002,0.00350952,
1.0025,0.00564575,
1.003,0.00900269,
1.0035,0.0137329,
1.004,0.0157166,
1.0045,0.0115967,
1.005,0.00778198,
1.0055,0.000915527,
1.006,-0.00244141,
1.0065,-0.00183105,
1.007,-0.00534058,
1.0075,-0.0106812,
1.008,-0.015564,
1.0085,-0.0128174,
1.009,-0.00427246,
1.0095,-0.00106812,
1.01,-0.00228882,
1.0105,-0.00457764,
1.011,-0.000762939,
1.0115,0.00671387,
1.012,0.0134277,
1.0125,0.0128174,
1.013,0.00900269,
1.0135,0.00839233,
1.014,0.00595093,
1.0145,0.00274658,
1.015,0.000152588,
1.0155,-0.000762939,
1.016,0.00320435,
1.0165,0.00518799,
1.017,0.00335693,
1.0175,0.00183105,
1.018,0.000152588,
1.0185,-0.00106812,
1.019,0.000610352,
1.0195,0.00152588,
1.02,0.00442505,
1.0205,0.00335693,
1.021,0.00228882,
1.0215,0.00579834,
1.022,0.00534058,
1.0225,-0.00152588,
1.023,-0.00946045,
1.0235,-0.0138855,
1.024,-0.0137329,
1.0245,-0.0115967,
1.025,-0.00930786,
1.0255,-0.00549316,
1.026,-0.00244141,
1.0265,-0.00244141,
1.027,-0.00167847,
1.0275,0.000610352,
1.028,0.00274658,
1.0285,0.00213623,
1.029,-0.00244141,
1.0295,-0.00671387,
1.03,-0.00930786,
1.0305,-0.00732422,
1.031,-0.00442505,
1.0315,0.00106812,
1.032,0.00305176,
1.0325,0.00152588,
1.033,-0.000610352,
1.0335,0.000457764,
1.034,-0.000305176,
1.0345,-0.000610352,
1.035,-0.000915527,
1.0355,-0.00152588,
1.036,-0.00564575,
1.0365,-0.012207,
1.037,-0.0149536,
1.0375,-0.0143433,
1.038,-0.0163269,
1.0385,-0.0189209,
1.039,-0.0140381,
1.0395,-0.00976563,
1.04,-0.00717163,
1.0405,-0.00732422,
1.041,-0.00915527,
1.0415,-0.00900269,
1.042,-0.00686646,
1.0425,-0.00732422,
1.043,-0.00350952,
1.0435,0,
1.044,-0.00183105,
1.0445,-0.00442505,
1.045,-0.00534058,
1.0455,-0.00595093,
1.046,-0.00457764,
1.0465,-0.00335693,
1.047,-0.00473022,
1.0475,-0.00244141,
1.048,-0.00259399,
1.0485,-0.00320435,
1.049,-0.00167847,
1.0495,0.000305176,
1.05,0,
1.0505,-0.000915527,
1.051,-0.00213623,
1.0515,-0.00320435,
1.052,-0.00320435,
1.0525,-0.00335693,
1.053,-0.00198364,
1.0535,0.000152588,
1.054,-0.00152588,
1.0545,-0.00137329,
1.055,0.000305176,
1.0555,-0.00320435,
1.056,-0.0114441,
1.0565,-0.0219727,
1.057,-0.0268555,
1.0575,-0.0274658,
1.058,-0.0216675,
1.0585,-0.0100708,
1.059,-0.00289917,
1.0595,-0.00106812,
1.06,-0.000915527,
1.0605,-0.00411987,
1.061,-0.00686646,
1.0615,-0.00778198,
1.062,-0.00946045,
1.0625,-0.00930786,
1.063,-0.00823975,
1.0635,-0.00808716,
1.064,-0.00640869,
1.0645,-0.00610352,
1.065,-0.00717163,
1.0655,-0.00656128,
1.066,-0.00442505,
1.0665,-0.00350952,
1.067,-0.00167847,
1.0675,0.00198364,
1.068,0.00366211,
1.0685,-0.000762939,
1.069,-0.00549316,
1.0695,-0.00762939,
1.07,-0.00961304,
1.0705,-0.00717163,
1.071,-0.00473022,
1.0715,-0.00213623,
1.072,0.000457764,
1.0725,0.00274658,
1.073,0.0038147,
1.0735,0.00106812,
1.074,-0.000305176,
1.0745,0.000762939,
1.075,0.00106812,
1.0755,0.000152588,
1.076,-0.000762939,
1.0765,-0.00244141,
1.077,-0.00289917,
1.0775,-0.00335693,
1.078,-0.00350952,
1.0785,-0.00183105,
1.079,0.00183105,
1.0795,0.00366211,
1.08,0.00305176,
1.0805,0.00488281,
1.081,0.00762939,
1.0815,0.00869751,
1.082,0.0114441,
1.0825,0.0132751,
1.083,0.0106812,
1.0835,0.00656128,
1.084,0.00579834,
1.0845,0.00183105,
1.085,-0.00518799,
1.0855,-0.0135803,
1.086,-0.0172424,
1.0865,-0.0151062,
1.087,-0.0137329,
1.0875,-0.00991821,
1.088,-0.00244141,
1.0885,0.00198364,
1.089,0.00274658,
1.0895,0.00335693,
1.09,0.0038147,
1.0905,0.00274658,
1.091,0.00167847,
1.0915,0.000305176,
1.092,0.00366211,
1.0925,0.00839233,
1.093,0.00640869,
1.0935,0.000305176,
1.094,-0.00549316,
1.0945,-0.00320435,
1.095,0.00167847,
1.0955,0.0050354,
1.096,0.00442505,
1.0965,-0.000457764,
1.097,-0.00396729,
1.0975,-0.0038147,
1.098,-0.00213623,
1.0985,-0.00289917,
1.099,-0.00930786,
1.0995,-0.0192261,
1.1,-0.0177002,
1.1005,-0.00549316,
1.101,0.00717163,
1.1015,0.00793457,
1.102,-0.000915527,
1.1025,-0.00869751,
1.103,-0.00427246,
1.1035,0.0134277,
1.104,0.0270081,
1.1045,0.0259399,
1.105,0.0151062,
1.1055,0.00762939,
1.106,0.00869751,
1.1065,0.0106812,
1.107,0.00671387,
1.1075,0.0062561,
1.108,0.00488281,
1.1085,0.00228882,
1.109,-0.00289917,
1.1095,-0.00732422,
1.11,-0.015564,
1.1105,-0.0239563,
1.111,-0.0280762,
1.1115,-0.0224304,
1.112,-0.0112915,
1.1125,0.000305176,
1.113,0.00839233,
1.1135,0.00900269,
1.114,0.00305176,
1.1145,-0.00152588,
1.115,-0.00595093,
1.1155,-0.0088501,
1.116,-0.010376,
1.1165,-0.00610352,
1.117,-0.00259399,
1.1175,-0.00244141,
1.118,-0.00152588,
1.1185,0.00167847,
1.119,0.00335693,
1.1195,0.0012207,
1.12,-0.000457764,
1.1205,0.00198364,
1.121,0.000457764,
1.1215,-0.00213623,
1.122,-0.00335693,
1.1225,-0.00213623,
1.123,-0.00137329,
1.1235,-0.00198364,
1.124,0.00152588,
1.1245,0.00442505,
1.125,0.00335693,
1.1255,0.000457764,
1.126,-0.00228882,
1.1265,-0.00320435,
1.127,-0.00518799,
1.1275,-0.00701904,
1.128,-0.00930786,
1.1285,-0.00869751,
1.129,-0.00732422,
1.1295,-0.00610352,
1.13,-0.00534058,
1.1305,-0.00289917,
1.131,0.000305176,
1.1315,0.000305176,
1.132,0.000762939,
1.1325,-0.00183105,
1.133,-0.00274658,
1.1335,-0.00473022,
1.134,-0.00396729,
1.1345,-0.00366211,
1.135,-0.00457764,
1.1355,-0.00411987,
1.136,-0.00183105,
1.1365,-0.00106812,
1.137,-0.00244141,
1.1375,-0.00595093,
1.138,-0.00305176,
1.1385,0.00137329,
1.139,0.00320435,
1.1395,-0.000915527,
1.14,-0.00595093,
1.1405,-0.00915527,
1.141,-0.010376,
1.1415,-0.00778198,
1.142,-0.00488281,
1.1425,-0.00213623,
1.143,-0.0038147,
1.1435,-0.00701904,
1.144,-0.00823975,
1.1445,-0.0109863,
1.145,-0.0109863,
1.1455,-0.00488281,
1.146,0,
1.1465,0.00289917,
1.147,0.00518799,
1.1475,0.00442505,
1.148,-0.000762939,
1.1485,-0.00854492,
1.149,-0.0105286,
1.1495,-0.00900269,
1.15,-0.00961304,
1.1505,-0.00610352,
1.151,-0.00137329,
1.1515,-0.00213623,
1.152,-0.00579834,
1.1525,-0.00656128,
1.153,-0.0088501,
1.1535,-0.0119019,
1.154,-0.0112915,
1.1545,-0.00793457,
1.155,-0.00289917,
1.1555,0.00183105,
1.156,0.00518799,
1.1565,0.0050354,
1.157,0.00564575,
1.1575,0.00335693,
1.158,0.00198364,
1.1585,0.00167847,
1.159,0.00289917,
1.1595,0.0038147,
1.16,0.00274658,
1.1605,0.00335693,
1.161,0.00534058,
1.1615,0.00747681,
1.162,0.00595093,
1.1625,0.00442505,
1.163,0.00686646,
1.1635,0.00823975,
1.164,0.00595093,
1.1645,0.00701904,
1.165,0.00839233,
1.1655,0.00762939,
1.166,0.00808716,
1.1665,0.0132751,
1.167,0.015564,
1.1675,0.0175476,
1.168,0.0152588,
1.1685,0.00610352,
1.169,-0.00839233,
1.1695,-0.0234985,
1.17,-0.0367737,
1.1705,-0.0535583,
1.171,-0.0627136,
1.1715,-0.0564575,
1.172,-0.038147,
1.1725,-0.0177002,
1.173,-0.00701904,
1.1735,-0.00350952,
1.174,0.000152588,
1.1745,0.00396729,
1.175,0.00320435,
1.1755,0.00549316,
1.176,0.0125122,
1.1765,0.0205994,
1.177,0.014801,
1.1775,0.0088501,
1.178,0.0111389,
1.1785,0.018158,
1.179,0.0216675,
1.1795,0.0231934,
1.18,0.0224304,
1.1805,0.0227356,
1.181,0.0187683,
1.1815,0.0164795,
1.182,0.0131226,
1.1825,0.00869751,
1.183,0.00564575,
1.1835,0.00427246,
1.184,0.00427246,
1.1845,0.0038147,
1.185,0.0012207,
1.1855,0.00106812,
1.186,-0.00152588,
1.1865,-0.00579834,
1.187,-0.00610352,
1.1875,-0.00183105,
1.188,0.00244141,
1.1885,0.00396729,
1.189,0.00564575,
1.1895,0.00488281,
1.19,0.00289917,
1.1905,0,
1.191,-0.00350952,
1.1915,-0.00595093,
1.192,-0.0134277,
1.1925,-0.0215149,
1.193,-0.0196838,
1.1935,-0.00961304,
1.194,-0.00335693,
1.1945,-0.00244141,
1.195,-0.00183105,
1.1955,-0.00656128,
1.196,-0.0248718,
1.1965,-0.0474548,
1.197,-0.0508118,
1.1975,-0.0402832,
1.198,-0.0314331,
1.1985,-0.0286865,
1.199,-0.0247192,
1.1995,-0.0186157,
1.2,-0.00778198,
1.2005,0.0100708,
1.201,0.0328064,
1.2015,0.0390625,
1.202,0.0228882,
1.2025,0.00991821,
1.203,0.0152588,
1.2035,0.0192261,
1.204,0.0140381,
1.2045,0.0143433,
1.205,0.0123596,
1.2055,0.00305176,
1.206,-0.000305176,
1.2065,0.00366211,
1.207,0.00289917,
1.2075,0.000457764,
1.208,-0.00213623,
1.2085,-0.00610352,
1.209,-0.0105286,
1.2095,-0.00961304,
1.21,-0.00671387,
1.2105,-0.00595093,
1.211,-0.00595093,
1.2115,-0.00869751,
1.212,-0.0102234,
1.2125,-0.00839233,
1.213,-0.0198364,
1.2135,-0.0523376,
1.214,-0.0735474,
1.2145,-0.0743103,
1.215,-0.0698853,
1.2155,-0.0675964,
1.216,-0.0688171,
1.2165,-0.0701904,
1.217,-0.0646973,
1.2175,-0.0473022,
1.218,-0.00396729,
1.2185,0.0479126,
1.219,0.0691223,
1.2195,0.0640869,
1.22,0.0579834,
1.2205,0.0646973,
1.221,0.071106,
1.2215,0.0654602,
1.222,0.0468445,
1.2225,0.0320435,
1.223,0.0271606,
1.2235,0.0283813,
1.224,0.0257874,
1.2245,0.020752,
1.225,0.0154114,
1.2255,0.00473022,
1.226,-0.0012207,
1.2265,0.000152588,
1.227,0.00137329,
1.2275,0.00152588,
1.228,0.00183105,
1.2285,0.00183105,
1.229,0.00274658,
1.2295,0.000762939,
1.23,-0.00228882,
1.2305,-0.00732422,
1.231,-0.00839233,
1.2315,-0.00839233,
1.232,-0.00823975,
1.2325,-0.00518799,
1.233,-0.00350952,
1.2335,-0.000610352,
1.234,-0.00198364,
1.2345,-0.00305176,
1.235,-0.00305176,
1.2355,-0.00198364,
1.236,-0.00396729,
1.2365,-0.0038147,
1.237,-0.00183105,
1.2375,-0.00274658,
1.238,-0.00640869,
1.2385,-0.0109863,
1.239,-0.0137329,
1.2395,-0.0135803,
1.24,-0.0115967,
1.2405,-0.00762939,
1.241,-0.00457764,
1.2415,-0.00518799,
1.242,-0.00701904,
1.2425,-0.0106812,
1.243,-0.0109863,
1.2435,-0.00946045,
1.244,-0.00701904,
1.2445,-0.00762939,
1.245,-0.00671387,
1.2455,-0.00747681,
1.246,-0.00961304,
1.2465,-0.0120544,
1.247,-0.0143433,
1.2475,-0.0169373,
1.248,-0.0195313,
1.2485,-0.0204468,
1.249,-0.020752,
1.2495,-0.0250244,
1.25,-0.0257874,
1.2505,-0.0236511,
1.251,-0.0198364,
1.2515,-0.0154114,
1.252,-0.0100708,
1.2525,-0.00289917,
1.253,-0.000762939,
1.2535,0.00259399,
1.254,0.00366211,
1.2545,0.00366211,
1.255,0.000915527,
1.2555,-0.000610352,
1.256,0.000762939,
1.2565,0.000457764,
1.257,0.00213623,
1.2575,0.00686646,
1.258,0.00961304,
1.2585,0.00808716,
1.259,0.0038147,
1.2595,0.00335693,
1.26,0.00564575,
1.2605,0.00946045,
1.261,0.0117493,
1.2615,0.00747681,
1.262,0.000457764,
1.2625,0.000457764,
1.263,0.000915527,
1.2635,-0.00320435,
1.264,-0.00640869,
1.2645,-0.00839233,
1.265,-0.00976563,
1.2655,-0.0100708,
1.266,-0.00732422,
1.2665,-0.00274658,
1.267,0.000457764,
1.2675,-0.000610352,
1.268,-0.00488281,
1.2685,-0.0038147,
1.269,0.000762939,
1.2695,0.00579834,
1.27,0.000610352,
1.2705,-0.00656128,
1.271,-0.00488281,
1.2715,0.00183105,
1.272,0.00564575,
1.2725,0.00610352,
1.273,0.00534058,
1.2735,0.00610352,
1.274,0.00732422,
1.2745,0.00549316,
1.275,0.00442505,
1.2755,0.00244141,
1.276,-0.0012207,
1.2765,0.000152588,
1.277,0.00442505,
1.2775,0.00610352,
1.278,0.00473022,
1.2785,0.00366211,
1.279,-0.000762939,
1.2795,-0.00762939,
1.28,-0.0114441,
1.2805,-0.01297,
1.281,-0.01297,
1.2815,-0.00976563,
1.282,-0.00106812,
1.2825,0.00137329,
1.283,0.000457764,
1.2835,-0.00350952,
1.284,-0.00701904,
1.2845,-0.00640869,
1.285,-0.00473022,
1.2855,-0.00686646,
1.286,-0.00747681,
1.2865,-0.00198364,
1.287,0.00411987,
1.2875,0.00732422,
1.288,0.00564575,
1.2885,0.00167847,
1.289,0.000915527,
1.2895,-0.00167847,
1.29,-0.00427246,
1.2905,-0.00320435,
1.291,-0.00610352,
1.2915,-0.00930786,
1.292,-0.0115967,
1.2925,-0.0128174,
1.293,-0.00976563,
1.2935,-0.00518799,
1.294,-0.00213623,
1.2945,-0.00274658,
1.295,-0.00473022,
1.2955,-0.00671387,
1.296,-0.00488281,
1.2965,-0.0050354,
1.297,-0.00564575,
1.2975,-0.00595093,
1.298,-0.00595093,
1.2985,-0.00595093,
1.299,-0.00717163,
1.2995,-0.00839233,
1.3,-0.0109863,
1.3005,-0.0128174,
1.301,-0.00961304,
1.3015,-0.00686646,
1.302,-0.00320435,
1.3025,0.00335693,
1.303,0.00411987,
1.3035,0.00259399,
1.304,0.000457764,
1.3045,-0.000610352,
1.305,0.000762939,
1.3055,0.00137329,
1.306,0.00183105,
1.3065,0.00427246,
1.307,0.00442505,
1.3075,0.00213623,
1.308,-0.00152588,
1.3085,-0.0105286,
1.309,-0.017395,
1.3095,-0.0135803,
1.31,-0.00396729,
1.3105,0.000610352,
1.311,0.00167847,
1.3115,0.00137329,
1.312,0.000457764,
1.3125,0.000762939,
1.313,0.00137329,
1.3135,0.00289917,
1.314,0.00106812,
1.3145,-0.000305176,
1.315,-0.0012207,
1.3155,-0.00198364,
1.316,-0.00198364,
1.3165,-0.0012207,
1.317,-0.00244141,
1.3175,-0.00320435,
1.318,-0.00320435,
1.3185,-0.00350952,
1.319,-0.00457764,
1.3195,-0.000762939,
1.32,0.000762939,
1.3205,0.00152588,
1.321,0,
1.3215,-0.00228882,
1.322,-0.00671387,
1.3225,-0.0202942,
1.323,-0.0309753,
1.3235,-0.0357056,
1.324,-0.0341797,
1.3245,-0.0334167,
1.325,-0.0393677,
1.3255,-0.0515747,
1.326,-0.0509644,
1.3265,-0.0396729,
1.327,-0.0280762,
1.3275,-0.0202942,
1.328,-0.0132751,
1.3285,-0.00366211,
1.329,0.00228882,
1.3295,0.00411987,
1.33,0.00869751,
1.3305,0.0138855,
1.331,0.0184631,
1.3315,0.0195313,
1.332,0.0205994,
1.3325,0.0262451,
1.333,0.037384,
1.3335,0.0512695,
1.334,0.0639343,
1.3345,0.0688171,
1.335,0.0689697,
1.3355,0.0631714,
1.336,0.0531006,
1.3365,0.0436401,
1.337,0.0360107,
1.3375,0.0274658,
1.338,0.0177002,
1.3385,0.00701904,
1.339,0.00259399,
1.3395,0.00350952,
1.34,0.00671387,
1.3405,0.0135803,
1.341,0.0231934,
1.3415,0.0250244,
1.342,0.0138855,
1.3425,0.00198364,
1.343,-0.000915527,
1.3435,-0.00289917,
1.344,-0.00823975,
1.3445,-0.0167847,
1.345,-0.0274658,
1.3455,-0.0350952,
1.346,-0.0421143,
1.3465,-0.0462341,
1.347,-0.057373,
1.3475,-0.0794983,
1.348,-0.0946045,
1.3485,-0.0892639,
1.349,-0.0790405,
1.3495,-0.0730896,
1.35,-0.0619507,
1.3505,-0.0408936,
1.351,0.0170898,
1.3515,0.0741577,
1.352,0.0915527,
1.3525,0.0808716,
1.353,0.0709534,
1.3535,0.0694275,
1.354,0.0723267,
1.3545,0.0679016,
1.355,0.043335,
1.3555,0.0105286,
1.356,-0.0125122,
1.3565,-0.0326538,
1.357,-0.0572205,
1.3575,-0.0717163,
1.358,-0.0772095,
1.3585,-0.0769043,
1.359,-0.0714111,
1.3595,-0.0521851,
1.36,-0.0254822,
1.3605,0,
1.361,0.0163269,
1.3615,0.0108337,
1.362,-0.0109863,
1.3625,-0.027771,
1.363,-0.0326538,
1.3635,-0.0300598,
1.364,-0.0317383,
1.3645,-0.0346375,
1.365,-0.0227356,
1.3655,0.0138855,
1.366,0.0505066,
1.3665,0.0686646,
1.367,0.0886536,
1.3675,0.102997,
1.368,0.085907,
1.3685,0.0526428,
1.369,0.0308228,
1.3695,0.0183105,
1.37,-0.00335693,
1.3705,-0.0209045,
1.371,-0.0299072,
1.3715,-0.0361633,
1.372,-0.0469971,
1.3725,-0.0674438,
1.373,-0.0894165,
1.3735,-0.112,
1.374,-0.120392,
1.3745,-0.115051,
1.375,-0.101776,
1.3755,-0.0802612,
1.376,-0.0422668,
1.3765,0.010376,
1.377,0.0494385,
1.3775,0.0559998,
1.378,0.0434875,
1.3785,0.0335693,
1.379,0.0202942,
1.3795,0.00747681,
1.38,0.00259399,
1.3805,0.0062561,
1.381,0.017395,
1.3815,0.0227356,
1.382,0.0262451,
1.3825,0.0256348,
1.383,0.015564,
1.3835,0.00564575,
1.384,0.00366211,
1.3845,0.00244141,
1.385,0.000457764,
1.3855,-0.000762939,
1.386,-0.000915527,
1.3865,-0.00106812,
1.387,-0.00244141,
1.3875,-0.00167847,
1.388,-0.00289917,
1.3885,-0.00411987,
1.389,-0.000610352,
1.3895,0.00350952,
1.39,-0.00259399,
1.3905,-0.0170898,
1.391,-0.0300598,
1.3915,-0.0369263,
1.392,-0.0378418,
1.3925,-0.0363159,
1.393,-0.0376892,
1.3935,-0.0283813,
1.394,-0.0134277,
1.3945,-0.00701904,
1.395,-0.00534058,
1.3955,-0.000610352,
1.396,0.00701904,
1.3965,0.0119019,
1.397,0.0149536,
1.3975,0.0158691,
1.398,0.0132751,
1.3985,0.0114441,
1.399,0.0108337,
1.3995,0.00686646,
1.4,0,
1.4005,-0.00717163,
1.401,-0.00701904,
1.4015,-0.00457764,
1.402,-0.00335693,
1.4025,0.0012207,
1.403,0.0088501,
1.4035,0.0201416,
1.404,0.0308228,
1.4045,0.032959,
1.405,0.0297546,
1.4055,0.0192261,
1.406,0.00823975,
1.4065,-0.00305176,
1.407,-0.0088501,
1.4075,-0.010376,
1.408,-0.0120544,
1.4085,-0.0105286,
1.409,0.000610352,
1.4095,0.0198364,
1.41,0.020752,
1.4105,-0.00305176,
1.411,-0.0227356,
1.4115,-0.025177,
1.412,-0.0346375,
1.4125,-0.0602722,
1.413,-0.0852966,
1.4135,-0.0959778,
1.414,-0.0968933,
1.4145,-0.0933838,
1.415,-0.0880432,
1.4155,-0.0759888,
1.416,-0.0515747,
1.4165,-0.0230408,
1.417,0.00350952,
1.4175,0.0312805,
1.418,0.0578308,
1.4185,0.0799561,
1.419,0.0917053,
1.4195,0.0930786,
1.42,0.0947571,
1.4205,0.113373,
1.421,0.133209,
1.4215,0.13855,
1.422,0.126495,
1.4225,0.110321,
1.423,0.0968933,
1.4235,0.0823975,
1.424,0.0665283,
1.4245,0.0500488,
1.425,0.0379944,
1.4255,0.0312805,
1.426,0.0308228,
1.4265,0.0335693,
1.427,0.0325012,
1.4275,0.0312805,
1.428,0.032196,
1.4285,0.0308228,
1.429,0.0218201,
1.4295,0.0152588,
1.43,0.0195313,
1.4305,0.0231934,
1.431,0.01297,
1.4315,0.000305176,
1.432,-0.00442505,
1.4325,0.000915527,
1.433,0.0111389,
1.4335,0.0224304,
1.434,0.0170898,
1.4345,-0.00137329,
1.435,-0.0213623,
1.4355,-0.0312805,
1.436,-0.0296021,
1.4365,-0.0209045,
1.437,-0.0135803,
1.4375,-0.00915527,
1.438,-0.00579834,
1.4385,-0.00686646,
1.439,-0.00946045,
1.4395,-0.0102234,
1.44,-0.00595093,
1.4405,-0.00137329,
1.441,-0.00350952,
1.4415,-0.0088501,
1.442,-0.0166321,
1.4425,-0.0209045,
1.443,-0.0195313,
1.4435,-0.0169373,
1.444,-0.0160217,
1.4445,-0.0216675,
1.445,-0.0279236,
1.4455,-0.0311279,
1.446,-0.0311279,
1.4465,-0.0323486,
1.447,-0.0343323,
1.4475,-0.0369263,
1.448,-0.0384521,
1.4485,-0.0331116,
1.449,-0.0212097,
1.4495,-0.0088501,
1.45,-0.00320435,
1.4505,-0.00106812,
1.451,-0.000762939,
1.4515,0.00259399,
1.452,0.00854492,
1.4525,0.0140381,
1.453,0.0184631,
1.4535,0.0175476,
1.454,0.0152588,
1.4545,-0.0012207,
1.455,-0.0193787,
1.4555,-0.0250244,
1.456,-0.0271606,
1.4565,-0.0273132,
1.457,-0.0230408,
1.4575,-0.0178528,
1.458,-0.0163269,
1.4585,-0.020752,
1.459,-0.0268555,
1.4595,-0.0262451,
1.46,-0.0210571,
1.4605,-0.0166321,
1.461,-0.0126648,
1.4615,-0.00976563,
1.462,-0.0115967,
1.4625,-0.0163269,
1.463,-0.0187683,
1.4635,-0.0170898,
1.464,-0.0140381,
1.4645,-0.012207,
1.465,-0.0160217,
1.4655,-0.0236511,
1.466,-0.0234985,
1.4665,-0.0177002,
1.467,-0.0135803,
1.4675,-0.0119019,
1.468,-0.0137329,
1.4685,-0.0163269,
1.469,-0.0282288,
1.4695,-0.0390625,
1.47,-0.035553,
1.4705,-0.0231934,
1.471,-0.0222778,
1.4715,-0.0276184,
1.472,-0.037384,
1.4725,-0.0390625,
1.473,-0.0300598,
1.4735,-0.0158691,
1.474,-0.0128174,
1.4745,-0.0120544,
1.475,-0.00488281,
1.4755,0.0062561,
1.476,0.0137329,
1.4765,0.0196838,
1.477,0.032196,
1.4775,0.052948,
1.478,0.0724792,
1.4785,0.0782776,
1.479,0.0776672,
1.4795,0.0738525,
1.48,0.067749,
1.4805,0.065918,
1.481,0.0721741,
1.4815,0.0675964,
1.482,0.0379944,
1.4825,0.0112915,
1.483,0.0050354,
1.4835,0.0128174,
1.484,0.0134277,
1.4845,0.00228882,
1.485,-0.0149536,
1.4855,-0.0273132,
1.486,-0.0302124,
1.4865,-0.0242615,
1.487,-0.0218201,
1.4875,-0.0297546,
1.488,-0.0352478,
1.4885,-0.0338745,
1.489,-0.0300598,
1.4895,-0.0283813,
1.49,-0.0300598,
1.4905,-0.0366211,
1.491,-0.0439453,
1.4915,-0.0480652,
1.492,-0.0439453,
1.4925,-0.0280762,
1.493,-0.00656128,
1.4935,0.00823975,
1.494,0.0106812,
1.4945,0.00106812,
1.495,-0.0164795,
1.4955,-0.0291443,
1.496,-0.0242615,
1.4965,-0.0114441,
1.497,-0.0140381,
1.4975,-0.0343323,
1.498,-0.063324,
1.4985,-0.0897217,
1.499,-0.121002,
1.4995,-0.141907,
1.5,-0.13092,
1.5005,-0.102539,
1.501,-0.0796509,
1.5015,-0.0604248,
1.502,-0.0444031,
1.5025,-0.0366211,
1.503,-0.0326538,
1.5035,-0.0325012,
1.504,-0.0375366,
1.5045,-0.0291443,
1.505,0,
1.5055,0.0350952,
1.506,0.0642395,
1.5065,0.0769043,
1.507,0.0860596,
1.5075,0.0947571,
1.508,0.0993347,
1.5085,0.0987244,
1.509,0.104065,
1.5095,0.116272,
1.51,0.11673,
1.5105,0.102844,
1.511,0.0778198,
1.5115,0.0445557,
1.512,0.00823975,
1.5125,-0.0137329,
1.513,-0.0282288,
1.5135,-0.0415039,
1.514,-0.0531006,
1.5145,-0.0596619,
1.515,-0.0683594,
1.5155,-0.0784302,
1.516,-0.0793457,
1.5165,-0.071106,
1.517,-0.0610352,
1.5175,-0.0491333,
1.518,-0.0291443,
1.5185,-0.00717163,
1.519,0.000457764,
1.5195,0.00457764,
1.52,0.0219727,
1.5205,0.0419617,
1.521,0.0614929,
1.5215,0.0758362,
1.522,0.0799561,
1.5225,0.0704956,
1.523,0.0631714,
1.5235,0.0654602,
1.524,0.0675964,
1.5245,0.0619507,
1.525,0.0408936,
1.5255,0.0187683,
1.526,0.00244141,
1.5265,-0.00900269,
1.527,-0.0187683,
1.5275,-0.0286865,
1.528,-0.0363159,
1.5285,-0.0437927,
1.529,-0.0622559,
1.5295,-0.0775146,
1.53,-0.070343,
1.5305,-0.0546265,
1.531,-0.0546265,
1.5315,-0.059967,
1.532,-0.0486755,
1.5325,-0.0274658,
1.533,-0.00610352,
1.5335,0.00335693,
1.534,0.00167847,
1.5345,0.000152588,
1.535,0.00274658,
1.5355,0.00839233,
1.536,0.00930786,
1.5365,0.00854492,
1.537,0.00640869,
1.5375,0.0111389,
1.538,0.0210571,
1.5385,0.0276184,
1.539,0.0415039,
1.5395,0.0614929,
1.54,0.0837708,
1.5405,0.0976563,
1.541,0.0894165,
1.5415,0.067749,
1.542,0.043335,
1.5425,0.0273132,
1.543,0.0195313,
1.5435,0.00518799,
1.544,-0.0170898,
1.5445,-0.0334167,
1.545,-0.0350952,
1.5455,-0.0239563,
1.546,-0.00869751,
1.5465,-0.00411987,
1.547,-0.00671387,
1.5475,-0.0141907,
1.548,-0.0178528,
1.5485,-0.012207,
1.549,-0.00808716,
1.5495,-0.0125122,
1.55,-0.0166321,
1.5505,-0.0224304,
1.551,-0.0250244,
1.5515,-0.0285339,
1.552,-0.0260925,
1.5525,-0.0163269,
1.553,-0.0109863,
1.5535,-0.0161743,
1.554,-0.0387573,
1.5545,-0.0798035,
1.555,-0.098877,
1.5555,-0.0758362,
1.556,-0.0382996,
1.5565,-0.0164795,
1.557,-0.0126648,
1.5575,-0.0169373,
1.558,-0.0163269,
1.5585,-0.00839233,
1.559,-0.00579834,
1.5595,-0.0215149,
1.56,-0.06073,
1.5605,-0.104828,
1.561,-0.122986,
1.5615,-0.106354,
1.562,-0.0741577,
1.5625,-0.0308228,
1.563,0.00793457,
1.5635,0.0288391,
1.564,0.0382996,
1.5645,0.0462341,
1.565,0.0454712,
1.5655,0.035553,
1.566,0.0192261,
1.5665,0.00900269,
1.567,0.010376,
1.5675,0.0279236,
1.568,0.0544739,
1.5685,0.0918579,
1.569,0.121918,
1.5695,0.125427,
1.57,0.0871277,
1.5705,0.0387573,
1.571,0.010376,
1.5715,-0.0378418,
1.572,-0.0740051,
1.5725,-0.0567627,
1.573,-0.0382996,
1.5735,-0.0346375,
1.574,-0.032196,
1.5745,-0.0193787,
1.575,-0.00228882,
1.5755,0.0204468,
1.576,0.0338745,
1.5765,0.0254822,
1.577,0.00152588,
1.5775,-0.0205994,
1.578,-0.0497437,
1.5785,-0.0912476,
1.579,-0.122223,
1.5795,-0.128174,
1.58,-0.152435,
1.5805,-0.176849,
1.581,-0.0923157,
1.5815,0.0837708,
1.582,0.225372,
1.5825,0.2742,
1.583,0.269623,
1.5835,0.240784,
1.584,0.183868,
1.5845,0.0917053,
1.585,-0.00854492,
1.5855,-0.0790405,
1.586,-0.109711,
1.5865,-0.117188,
1.587,-0.11673,
1.5875,-0.115814,
1.588,-0.110168,
1.5885,-0.096283,
1.589,-0.0740051,
1.5895,-0.0448608,
1.59,-0.018158,
1.5905,0.00686646,
1.591,0.0289917,
1.5915,0.045166,
1.592,0.0648499,
1.5925,0.0918579,
1.593,0.112915,
1.5935,0.109863,
1.594,0.0810242,
1.5945,0.0444031,
1.595,0.0151062,
1.5955,-0.0189209,
1.596,-0.0364685,
1.5965,-0.0415039,
1.597,-0.0396729,
1.5975,-0.0212097,
1.598,0.00396729,
1.5985,0.0167847,
1.599,0.015564,
1.5995,0.00778198,
1.6,0.00167847,
1.6005,0.00137329,
1.601,0.00274658,
1.6015,0.00152588,
1.602,-0.00595093,
1.6025,-0.0236511,
1.603,-0.0167847,
1.6035,0.0250244,
1.604,0.0547791,
1.6045,0.0608826,
1.605,0.0624084,
1.6055,0.0639343,
1.606,0.0688171,
1.6065,0.0764465,
1.607,0.0558472,
1.6075,0.0160217,
1.608,-0.0154114,
1.6085,-0.0282288,
1.609,-0.040741,
1.6095,-0.0582886,
1.61,-0.0886536,
1.6105,-0.141449,
1.611,-0.162659,
1.6115,-0.117798,
1.612,-0.0437927,
1.6125,0.00869751,
1.613,0.0996399,
1.6135,0.225525,
1.614,0.2742,
1.6145,0.231171,
1.615,0.158997,
1.6155,0.0758362,
1.616,-0.00274658,
1.6165,-0.0569153,
1.617,-0.0839233,
1.6175,-0.0817871,
1.618,-0.0621033,
1.6185,-0.0445557,
1.619,-0.035553,
1.6195,-0.050354,
1.62,-0.106659,
1.6205,-0.220795,
1.621,-0.315552,
1.6215,-0.272064,
1.622,-0.137787,
1.6225,-0.032196,
1.623,0.0141907,
1.6235,0.0465393,
1.624,0.0665283,
1.6245,0.065918,
1.625,0.0672913,
1.6255,0.0765991,
1.626,0.0840759,
1.6265,0.0756836,
1.627,0.0701904,
1.6275,0.0700378,
1.628,0.0637817,
1.6285,0.0428772,
1.629,0.0190735,
1.6295,0,
1.63,-0.0212097,
1.6305,-0.0558472,
1.631,-0.105133,
1.6315,-0.148773,
1.632,-0.133209,
1.6325,-0.0508118,
1.633,-0.010376,
1.6335,-0.0401306,
1.634,-0.0726318,
1.6345,-0.0872803,
1.635,-0.0883484,
1.6355,-0.0737,
1.636,-0.0567627,
1.6365,-0.0590515,
1.637,-0.0706482,
1.6375,-0.0646973,
1.638,-0.0582886,
1.6385,-0.0814819,
1.639,-0.140839,
1.6395,-0.154724,
1.64,-0.0382996,
1.6405,0.130615,
1.641,0.240479,
1.6415,0.271606,
1.642,0.274963,
1.6425,0.261078,
1.643,0.214081,
1.6435,0.144958,
1.644,0.0738525,
1.6445,0.0062561,
1.645,-0.0474548,
1.6455,-0.0747681,
1.646,-0.0791931,
1.6465,-0.0704956,
1.647,-0.0547791,
1.6475,-0.0439453,
1.648,-0.0364685,
1.6485,-0.0274658,
1.649,-0.0204468,
1.6495,-0.0183105,
1.65,-0.0143433,
1.6505,-0.00686646,
1.651,0.000915527,
1.6515,0.00305176,
1.652,-0.00106812,
1.6525,-0.00640869,
1.653,-0.0131226,
1.6535,-0.0256348,
1.654,-0.0396729,
1.6545,-0.0535583,
1.655,-0.0639343,
1.6555,-0.0759888,
1.656,-0.0799561,
1.6565,-0.0741577,
1.657,-0.0582886,
1.6575,-0.0370789,
1.658,-0.0204468,
1.6585,-0.032959,
1.659,-0.0622559,
1.6595,-0.088501,
1.66,-0.114441,
1.6605,-0.110931,
1.661,-0.0488281,
1.6615,0.0337219,
1.662,0.085907,
1.6625,0.109558,
1.663,0.136719,
1.6635,0.158386,
1.664,0.153351,
1.6645,0.128937,
1.665,0.111542,
1.6655,0.110779,
1.666,0.10437,
1.6665,0.0741577,
1.667,0.0201416,
1.6675,-0.052948,
1.668,-0.148773,
1.6685,-0.224457,
1.669,-0.183105,
1.6695,-0.0506592,
1.67,0.0512695,
1.6705,0.0712585,
1.671,0.0466919,
1.6715,0.00854492,
1.672,-0.0144958,
1.6725,0.0697327,
1.673,0.185699,
1.6735,0.196228,
1.674,0.124817,
1.6745,0.0860596,
1.675,0.104218,
1.6755,0.13092,
1.676,0.115204,
1.6765,0.0819397,
1.677,0.0668335,
1.6775,0.0492859,
1.678,0.00808716,
1.6785,-0.0654602,
1.679,-0.137787,
1.6795,-0.213623,
1.68,-0.27832,
1.6805,-0.255585,
1.681,-0.135956,
1.6815,-0.0202942,
1.682,0.039978,
1.6825,0.0679016,
1.683,0.0582886,
1.6835,0.0144958,
1.684,-0.0236511,
1.6845,-0.0358582,
1.685,-0.0532532,
1.6855,-0.083313,
1.686,-0.109711,
1.6865,-0.106964,
1.687,-0.0749207,
1.6875,-0.0535583,
1.688,-0.0523376,
1.6885,-0.0582886,
1.689,-0.0752258,
1.6895,-0.0852966,
1.69,-0.0732422,
1.6905,-0.0498962,
1.691,-0.0247192,
1.6915,-0.000305176,
1.692,0.00900269,
1.6925,0.00930786,
1.693,0.0198364,
1.6935,0.0437927,
1.694,0.0656128,
1.6945,0.0653076,
1.695,0.057373,
1.6955,0.0582886,
1.696,0.06073,
1.6965,0.062561,
1.697,0.0823975,
1.6975,0.110016,
1.698,0.105896,
1.6985,0.0708008,
1.699,0.0375366,
1.6995,0.0172424,
1.7,0.00442505,
1.7005,0.00183105,
1.701,0.00106812,
1.7015,-0.0195313,
1.702,-0.0570679,
1.7025,-0.0875854,
1.703,-0.0909424,
1.7035,-0.057373,
1.704,-0.00442505,
1.7045,0.0238037,
1.705,0.0270081,
1.7055,0.0221252,
1.706,0.0192261,
1.7065,0.0169373,
1.707,0.0112915,
1.7075,0.00411987,
1.708,-0.000915527,
1.7085,0.014801,
1.709,0.0575256,
1.7095,0.072937,
1.71,0.0338745,
1.7105,-0.0349426,
1.711,-0.0695801,
1.7115,-0.0354004,
1.712,0.0350952,
1.7125,0.0769043,
1.713,0.0735474,
1.7135,0.0424194,
1.714,0.00564575,
1.7145,-0.0178528,
1.715,-0.0306702,
1.7155,-0.0320435,
1.716,-0.0230408,
1.7165,-0.0126648,
1.717,0.0170898,
1.7175,0.117188,
1.718,0.212708,
1.7185,0.21286,
1.719,0.151978,
1.7195,0.0805664,
1.72,0.0166321,
1.7205,-0.0297546,
1.721,-0.0654602,
1.7215,-0.104523,
1.722,-0.151062,
1.7225,-0.207062,
1.723,-0.234528,
1.7235,-0.232697,
1.724,-0.25116,
1.7245,-0.275726,
1.725,-0.214844,
1.7255,-0.0894165,
1.726,0.00869751,
1.7265,0.0601196,
1.727,0.106659,
1.7275,0.171204,
1.728,0.236053,
1.7285,0.258484,
1.729,0.231018,
1.7295,0.171356,
1.73,0.109406,
1.7305,0.0556946,
1.731,0.027771,
1.7315,0.0189209,
1.732,0.0131226,
1.7325,0.00640869,
1.733,-0.00289917,
1.7335,-0.0152588,
1.734,-0.0267029,
1.7345,-0.0396729,
1.735,-0.0495911,
1.7355,-0.063324,
1.736,-0.0740051,
1.7365,-0.0717163,
1.737,-0.0553894,
1.7375,-0.0485229,
1.738,-0.0465393,
1.7385,-0.0367737,
1.739,-0.0233459,
1.7395,-0.0141907,
1.74,-0.00869751,
1.7405,0,
1.741,0.00778198,
1.7415,0.0102234,
1.742,0.0228882,
1.7425,0.0524902,
1.743,0.0605774,
1.7435,0.037384,
1.744,0.0170898,
1.7445,0.0224304,
1.745,0.0427246,
1.7455,0.0590515,
1.746,0.068512,
1.7465,0.0582886,
1.747,0.040741,
1.7475,0.0419617,
1.748,0.0463867,
1.7485,0.0230408,
1.749,-0.0404358,
1.7495,-0.124817,
1.75,-0.15274,
1.7505,-0.114288,
1.751,-0.0689697,
1.7515,-0.0578308,
1.752,-0.0584412,
1.7525,-0.0476074,
1.753,-0.0344849,
1.7535,-0.0305176,
1.754,-0.0289917,
1.7545,-0.0138855,
1.755,0.0238037,
1.7555,0.0440979,
1.756,0.0131226,
1.7565,-0.0193787,
1.757,-0.0115967,
1.7575,0.0219727,
1.758,0.0524902,
1.7585,0.0683594,
1.759,0.0787354,
1.7595,0.0917053,
1.76,0.104523,
1.7605,0.0987244,
1.761,0.063324,
1.7615,0.0177002,
1.762,-0.0222778,
1.7625,-0.0656128,
1.763,-0.106659,
1.7635,-0.132751,
1.764,-0.140686,
1.7645,-0.139008,
1.765,-0.132141,
1.7655,-0.133667,
1.766,-0.148468,
1.7665,-0.125885,
1.767,-0.0630188,
1.7675,-0.017395,
1.768,-0.00579834,
1.7685,0,
1.769,0.018158,
1.7695,0.0384521,
1.77,0.0350952,
1.7705,0.0265503,
1.771,0.0428772,
1.7715,0.0624084,
1.772,0.0512695,
1.7725,0.0245667,
1.773,0.00671387,
1.7735,-0.00686646,
1.774,-0.0238037,
1.7745,-0.0393677,
1.775,-0.0526428,
1.7755,-0.0653076,
1.776,-0.0675964,
1.7765,-0.0541687,
1.777,-0.0375366,
1.7775,-0.0280762,
1.778,-0.0201416,
1.7785,-0.00991821,
1.779,-0.00198364,
1.7795,0.00183105,
1.78,0.00930786,
1.7805,0.0253296,
1.781,0.0372314,
1.7815,0.0572205,
1.782,0.0872803,
1.7825,0.12085,
1.783,0.153198,
1.7835,0.165863,
1.784,0.131989,
1.7845,0.0769043,
1.785,0.0123596,
1.7855,-0.0460815,
1.786,-0.0776672,
1.7865,-0.0743103,
1.787,-0.0608826,
1.7875,-0.0610352,
1.788,-0.0576782,
1.7885,-0.0314331,
1.789,-0.0111389,
1.7895,-0.0314331,
1.79,-0.0738525,
1.7905,-0.0634766,
1.791,0.00671387,
1.7915,0.0601196,
1.792,0.0585938,
1.7925,0.039978,
1.793,0.0352478,
1.7935,0.0350952,
1.794,0.045166,
1.7945,0.0552368,
1.795,0.0447083,
1.7955,0.0195313,
1.796,0.00671387,
1.7965,0.0102234,
1.797,0.0149536,
1.7975,0.0210571,
1.798,0.0387573,
1.7985,0.0643921,
1.799,0.0779724,
1.7995,0.0791931,
1.8,0.0741577,
1.8005,0.0653076,
1.801,0.0532532,
1.8015,0.0468445,
1.802,0.0421143,
1.8025,0.0224304,
1.803,-0.0114441,
1.8035,-0.0363159,
1.804,-0.0370789,
1.8045,-0.0297546,
1.805,-0.0372314,
1.8055,-0.0593567,
1.806,-0.0798035,
1.8065,-0.0999451,
1.807,-0.109863,
1.8075,-0.10788,
1.808,-0.0794983,
1.8085,0.0352478,
1.809,0.170441,
1.8095,0.214691,
1.81,0.175934,
1.8105,0.120239,
1.811,0.0654602,
1.8115,0.0196838,
1.812,-0.0157166,
1.8125,-0.0302124,
1.813,-0.0306702,
1.8135,-0.0369263,
1.814,-0.0610352,
1.8145,-0.124817,
1.815,-0.250244,
1.8155,-0.348358,
1.816,-0.305023,
1.8165,-0.178223,
1.817,-0.0920105,
1.8175,-0.0689697,
1.818,-0.0619507,
1.8185,-0.0236511,
1.819,0.022583,
1.8195,0.0454712,
1.82,0.0486755,
1.8205,0.0404358,
1.821,0.032196,
1.8215,0.0305176,
1.822,0.0299072,
1.8225,0.0215149,
1.823,0.00564575,
1.8235,-0.00869751,
1.824,-0.0135803,
1.8245,-0.0239563,
1.825,-0.052948,
1.8255,-0.115051,
1.826,-0.149994,
1.8265,-0.113831,
1.827,-0.042572,
1.8275,-0.000610352,
1.828,-0.0012207,
1.8285,-0.0175476,
1.829,-0.0292969,
1.8295,-0.0387573,
1.83,-0.0346375,
1.8305,-0.0224304,
1.831,-0.0305176,
1.8315,-0.0473022,
1.832,-0.0444031,
1.8325,-0.0167847,
1.833,0.00854492,
1.8335,0.0213623,
1.834,0.0332642,
1.8345,0.0543213,
1.835,0.0804138,
1.8355,0.0942993,
1.836,0.0836182,
1.8365,0.0691223,
1.837,0.0787354,
1.8375,0.109253,
1.838,0.134735,
1.8385,0.115356,
1.839,0.0563049,
1.8395,0.00823975,
1.84,0.000610352,
1.8405,0.0108337,
1.841,0.0175476,
1.8415,0.0128174,
1.842,-0.00244141,
1.8425,-0.00946045,
1.843,-0.000762939,
1.8435,0.0270081,
1.844,0.072937,
1.8445,0.115356,
1.845,0.123596,
1.8455,0.0999451,
1.846,0.0637817,
1.8465,0.0012207,
1.847,-0.0502014,
1.8475,-0.0294495,
1.848,0.0314331,
1.8485,0.0613403,
1.849,0.0575256,
1.8495,0.0462341,
1.85,0.0404358,
1.8505,0.0325012,
1.851,0.0112915,
1.8515,-0.0227356,
1.852,-0.0740051,
1.8525,-0.117798,
1.853,-0.135956,
1.8535,-0.141602,
1.854,-0.141449,
1.8545,-0.128632,
1.855,-0.113525,
1.8555,-0.110474,
1.856,-0.120392,
1.8565,-0.11795,
1.857,-0.0952148,
1.8575,-0.0621033,
1.858,-0.0267029,
1.8585,0.0158691,
1.859,0.0718689,
1.8595,0.125122,
1.86,0.160828,
1.8605,0.181122,
1.861,0.178528,
1.8615,0.147247,
1.862,0.110016,
1.8625,0.0886536,
1.863,0.0808716,
1.8635,0.0733948,
1.864,0.0457764,
1.8645,0.0114441,
1.865,-0.000762939,
1.8655,-0.00106812,
1.866,-0.0189209,
1.8665,-0.0521851,
1.867,-0.0730896,
1.8675,-0.0796509,
1.868,-0.072937,
1.8685,-0.0627136,
1.869,-0.0672913,
1.8695,-0.0788879,
1.87,-0.0761414,
1.8705,-0.0694275,
1.871,-0.0712585,
1.8715,-0.0717163,
1.872,-0.0695801,
1.8725,-0.0788879,
1.873,-0.0985718,
1.8735,-0.112457,
1.874,-0.114746,
1.8745,-0.116425,
1.875,-0.124512,
1.8755,-0.118256,
1.876,-0.0886536,
1.8765,-0.0502014,
1.877,-0.0157166,
1.8775,0.0253296,
1.878,0.0708008,
1.8785,0.10498,
1.879,0.0994873,
1.8795,0.0537109,
1.88,0.00671387,
1.8805,-0.000915527,
1.881,0.039978,
1.8815,0.100555,
1.882,0.159454,
1.8825,0.202637,
1.883,0.232697,
1.8835,0.236053,
1.884,0.194855,
1.8845,0.124207,
1.885,0.0514221,
1.8855,-0.00976563,
1.886,-0.0482178,
1.8865,-0.0340271,
1.887,0.0294495,
1.8875,0.0924683,
1.888,0.19577,
1.8885,0.285339,
1.889,0.271149,
1.8895,0.171509,
1.89,0.0456238,
1.8905,-0.0675964,
1.891,-0.154266,
1.8915,-0.207825,
1.892,-0.216827,
1.8925,-0.18692,
1.893,-0.169678,
1.8935,-0.216827,
1.894,-0.294189,
1.8945,-0.311127,
1.895,-0.20874,
1.8955,-0.0543213,
1.896,0.0463867,
1.8965,0.0831604,
1.897,0.0888062,
1.8975,0.0971985,
1.898,0.11322,
1.8985,0.124207,
1.899,0.110474,
1.8995,0.0744629,
1.9,0.0344849,
1.9005,-0.00915527,
1.901,-0.0454712,
1.9015,-0.0640869,
1.902,-0.0756836,
1.9025,-0.0947571,
1.903,-0.106964,
1.9035,-0.101776,
1.904,-0.0906372,
1.9045,-0.0921631,
1.905,-0.109711,
1.9055,-0.110321,
1.906,-0.0822449,
1.9065,-0.0505066,
1.907,-0.0308228,
1.9075,-0.0308228,
1.908,-0.0323486,
1.9085,-0.0209045,
1.909,0.00701904,
1.9095,0.0343323,
1.91,0.0582886,
1.9105,0.0738525,
1.911,0.0796509,
1.9115,0.0717163,
1.912,0.0386047,
1.9125,-0.00335693,
1.913,0.00808716,
1.9135,0.0656128,
1.914,0.10788,
1.9145,0.112915,
1.915,0.0881958,
1.9155,0.0605774,
1.916,0.0384521,
1.9165,0.0187683,
1.917,0.00534058,
1.9175,0.00701904,
1.918,0.0132751,
1.9185,0.0038147,
1.919,-0.00946045,
1.9195,-0.014801,
1.92,-0.00671387,
1.9205,0.00930786,
1.921,0.0183105,
1.9215,0.0227356,
1.922,0.0268555,
1.9225,0.0289917,
1.923,0.035553,
1.9235,0.0396729,
1.924,0.0282288,
1.9245,0.00320435,
1.925,-0.00518799,
1.9255,0.00274658,
1.926,0.00686646,
1.9265,0.0111389,
1.927,0.0119019,
1.9275,-0.000762939,
1.928,-0.0184631,
1.9285,-0.0187683,
1.929,0.00289917,
1.9295,0.0219727,
1.93,0.0231934,
1.9305,0.00976563,
1.931,-0.0102234,
1.9315,-0.0427246,
1.932,-0.0892639,
1.9325,-0.125427,
1.933,-0.139923,
1.9335,-0.144196,
1.934,-0.145721,
1.9345,-0.151978,
1.935,-0.166321,
1.9355,-0.164185,
1.936,-0.119629,
1.9365,-0.062561,
1.937,-0.0328064,
1.9375,-0.0244141,
1.938,-0.0135803,
1.9385,0.00564575,
1.939,0.0238037,
1.9395,0.0457764,
1.94,0.0700378,
1.9405,0.0907898,
1.941,0.0999451,
1.9415,0.105133,
1.942,0.11261,
1.9425,0.113373,
1.943,0.0967407,
1.9435,0.0669861,
1.944,0.0428772,
1.9445,0.0320435,
1.945,0.00793457,
1.9455,-0.0352478,
1.946,-0.0646973,
1.9465,-0.0679016,
1.947,-0.0622559,
1.9475,-0.0704956,
1.948,-0.0984192,
1.9485,-0.136261,
1.949,-0.17334,
1.9495,-0.198212,
1.95,-0.2034,
1.9505,-0.196991,
1.951,-0.187225,
1.9515,-0.162811,
1.952,-0.125275,
1.9525,-0.0744629,
1.953,-0.0184631,
1.9535,0.0317383,
1.954,0.0775146,
1.9545,0.123901,
1.955,0.172882,
1.9555,0.223236,
1.956,0.265808,
1.9565,0.288544,
1.957,0.289307,
1.9575,0.273743,
1.958,0.261536,
1.9585,0.249481,
1.959,0.223083,
1.9595,0.174408,
1.96,0.118256,
1.9605,0.0700378,
1.961,0.0286865,
1.9615,-0.0111389,
1.962,-0.0338745,
1.9625,-0.037384,
1.963,-0.0421143,
1.9635,-0.0543213,
1.964,-0.0639343,
1.9645,-0.0610352,
1.965,-0.0523376,
1.9655,-0.0508118,
1.966,-0.0601196,
1.9665,-0.0849915,
1.967,-0.126953,
1.9675,-0.154114,
1.968,-0.14679,
1.9685,-0.122681,
1.969,-0.106812,
1.9695,-0.101776,
1.97,-0.0881958,
1.9705,-0.0653076,
1.971,-0.0442505,
1.9715,-0.0372314,
1.972,-0.0360107,
1.9725,-0.0186157,
1.973,0.0128174,
1.9735,0.0369263,
1.974,0.0404358,
1.9745,0.0331116,
1.975,0.0335693,
1.9755,0.0668335,
1.976,0.125122,
1.9765,0.152283,
1.977,0.121613,
1.9775,0.0776672,
1.978,0.0836182,
1.9785,0.133667,
1.979,0.171204,
1.9795,0.148773,
1.98,0.0874329,
1.9805,0.0386047,
1.981,0.0189209,
1.9815,0.00823975,
1.982,-0.0088501,
1.9825,-0.0254822,
1.983,-0.0408936,
1.9835,-0.0613403,
1.984,-0.0726318,
1.9845,-0.0291443,
1.985,0.0109863,
1.9855,0.010376,
1.986,0.00778198,
1.9865,0.0216675,
1.987,0.0521851,
1.9875,0.0796509,
1.988,0.0846863,
1.9885,0.0576782,
1.989,0.0160217,
1.9895,-0.00747681,
1.99,-0.0354004,
1.9905,-0.136566,
1.991,-0.279236,
1.9915,-0.31723,
1.992,-0.240936,
1.9925,-0.15976,
1.993,-0.124359,
1.9935,-0.128021,
1.994,-0.15625,
1.9945,-0.15213,
1.995,-0.0920105,
1.9955,-0.0367737,
1.996,-0.0346375,
1.9965,-0.0337219,
1.997,-0.000762939,
1.9975,0.0131226,
1.998,-0.00640869,
1.9985,-0.0259399,
1.999,-0.0296021,
1.9995,-0.0337219,
2,-0.0366211,
2.0005,-0.0292969,
2.001,-0.0219727,
2.0015,-0.0224304,
2.002,-0.0195313,
2.0025,-0.0149536,
2.003,-0.0117493,
2.0035,-0.0117493,
2.004,-0.0161743,
2.0045,-0.00717163,
2.005,0.027771,
2.0055,0.0604248,
2.006,0.0727844,
2.0065,0.0775146,
2.007,0.0772095,
2.0075,0.0743103,
2.008,0.0746155,
2.0085,0.0672913,
2.009,0.0579834,
2.0095,0.0561523,
2.01,0.0502014,
2.0105,0.0279236,
2.011,-0.00640869,
2.0115,-0.0352478,
2.012,-0.0532532,
2.0125,-0.0622559,
2.013,-0.080719,
2.0135,-0.106506,
2.014,-0.119019,
2.0145,-0.119019,
2.015,-0.11322,
2.0155,-0.090332,
2.016,-0.0370789,
2.0165,0.03479,
2.017,0.0941467,
2.0175,0.123596,
2.018,0.117493,
2.0185,0.0953674,
2.019,0.0845337,
2.0195,0.0927734,
2.02,0.105743,
2.0205,0.101776,
2.021,0.0715637,
2.0215,0.0447083,
2.022,0.0520325,
2.0225,0.0701904,
2.023,0.0743103,
2.0235,0.0596619,
2.024,0.0296021,
2.0245,-0.0180054,
2.025,-0.0761414,
2.0255,-0.13092,
2.026,-0.171509,
2.0265,-0.196533,
2.027,-0.186157,
2.0275,-0.130157,
2.028,-0.0668335,
2.0285,-0.0350952,
2.029,-0.0230408,
2.0295,-0.00686646,
2.03,0.019989,
2.0305,0.0534058,
2.031,0.0852966,
2.0315,0.121613,
2.032,0.15686,
2.0325,0.18219,
2.033,0.192566,
2.0335,0.198364,
2.034,0.194855,
2.0345,0.170898,
2.035,0.134888,
2.0355,0.104218,
2.036,0.0715637,
2.0365,0.0463867,
2.037,0.0411987,
2.0375,0.0360107,
2.038,0.0260925,
2.0385,0.0402832,
2.039,0.0959778,
2.0395,0.131073,
2.04,0.106049,
2.0405,0.0466919,
2.041,-0.0201416,
2.0415,-0.0691223,
2.042,-0.0846863,
2.0425,-0.0772095,
2.043,-0.0437927,
2.0435,-0.00427246,
2.044,-0.00198364,
2.0445,-0.0419617,
2.045,-0.101776,
2.0455,-0.161896,
2.046,-0.180511,
2.0465,-0.154724,
2.047,-0.116577,
2.0475,-0.0898743,
2.048,-0.0743103,
2.0485,-0.0691223,
2.049,-0.0740051,
2.0495,-0.0932312,
2.05,-0.108337,
2.0505,-0.0967407,
2.051,-0.0770569,
2.0515,-0.0846863,
2.052,-0.10437,
2.0525,-0.0987244,
2.053,-0.0474548,
2.0535,-0.00839233,
2.054,-0.00427246,
2.0545,-0.0134277,
2.055,-0.0244141,
2.0555,-0.0367737,
2.056,-0.0486755,
2.0565,-0.0471497,
2.057,0.00274658,
2.0575,0.0788879,
2.058,0.102844,
2.0585,0.0720215,
2.059,0.0369263,
2.0595,0,
2.06,-0.0421143,
2.0605,-0.0189209,
2.061,0.0628662,
2.0615,0.119019,
2.062,0.119171,
2.0625,0.0949097,
2.063,0.0688171,
2.0635,0.0354004,
2.064,-0.00732422,
2.0645,-0.042572,
2.065,-0.0567627,
2.0655,-0.0598145,
2.066,-0.0518799,
2.0665,-0.045929,
2.067,-0.0502014,
2.0675,-0.0495911,
2.068,-0.052948,
2.0685,-0.0566101,
2.069,-0.037384,
2.0695,-0.00854492,
2.07,0.00900269,
2.0705,0.032196,
2.071,0.13092,
2.0715,0.254669,
2.072,0.276794,
2.0725,0.205078,
2.073,0.110626,
2.0735,0.042572,
2.074,0.0230408,
2.0745,0.0236511,
2.075,0.00427246,
2.0755,-0.0325012,
2.076,-0.0535583,
2.0765,-0.0688171,
2.077,-0.127258,
2.0775,-0.228424,
2.078,-0.254517,
2.0785,-0.170898,
2.079,-0.072937,
2.0795,-0.03479,
2.08,-0.0527954,
2.0805,-0.0881958,
2.081,-0.0987244,
2.0815,-0.0845337,
2.082,-0.0695801,
2.0825,-0.0596619,
2.083,-0.0506592,
2.0835,-0.0360107,
2.084,-0.022583,
2.0845,-0.0114441,
2.085,0.0012207,
2.0855,0.0154114,
2.086,0.0114441,
2.0865,-0.00610352,
2.087,-0.0140381,
2.0875,0.00518799,
2.088,0.0308228,
2.0885,0.0482178,
2.089,0.0654602,
2.0895,0.0788879,
2.09,0.0947571,
2.0905,0.11322,
2.091,0.112305,
2.0915,0.10437,
2.092,0.115509,
2.0925,0.126495,
2.093,0.0997925,
2.0935,0.06073,
2.094,0.0431824,
2.0945,0.0410461,
2.095,0.0375366,
2.0955,0.0228882,
2.096,-0.000305176,
2.0965,-0.0221252,
2.097,-0.0361633,
2.0975,-0.0344849,
2.098,-0.0161743,
2.0985,0.0119019,
2.099,0.0276184,
2.0995,0.0178528,
2.1,-0.00213623,
2.1005,-0.0178528,
2.101,-0.0302124,
2.1015,-0.0422668,
2.102,-0.0437927,
2.1025,-0.0157166,
2.103,0.0244141,
2.1035,0.0392151,
2.104,0.0125122,
2.1045,-0.0462341,
2.105,-0.0724792,
2.1055,-0.0378418,
2.106,0.00350952,
2.1065,0.0105286,
2.107,-0.00198364,
2.1075,-0.0187683,
2.108,-0.0498962,
2.1085,-0.0878906,
2.109,-0.124512,
2.1095,-0.154266,
2.11,-0.163422,
2.1105,-0.154877,
2.111,-0.15274,
2.1115,-0.149841,
2.112,-0.12085,
2.1125,-0.0798035,
2.113,-0.0561523,
2.1135,-0.043335,
2.114,-0.0216675,
2.1145,0.00564575,
2.115,0.0245667,
2.1155,0.0366211,
2.116,0.0512695,
2.1165,0.0680542,
2.117,0.0697327,
2.1175,0.0672913,
2.118,0.0898743,
2.1185,0.119019,
2.119,0.124512,
2.1195,0.106354,
2.12,0.0917053,
2.1205,0.0810242,
2.121,0.0515747,
2.1215,-0.000305176,
2.122,-0.045929,
2.1225,-0.0602722,
2.123,-0.0454712,
2.1235,-0.0387573,
2.124,-0.0588989,
2.1245,-0.072937,
2.125,-0.0526428,
2.1255,-0.0170898,
2.126,0.0126648,
2.1265,0.0410461,
2.127,0.0747681,
2.1275,0.0886536,
2.128,0.0718689,
2.1285,0.0376892,
2.129,0.010376,
2.1295,0.00823975,
2.13,0.0598145,
2.1305,0.119476,
2.131,0.124817,
2.1315,0.0802612,
2.132,0.0314331,
2.1325,0.0180054,
2.133,0.0259399,
2.1335,0.0152588,
2.134,-0.0050354,
2.1345,-0.00366211,
2.135,-0.00961304,
2.1355,-0.0311279,
2.136,-0.045166,
2.1365,-0.0506592,
2.137,-0.0518799,
2.1375,0.000610352,
2.138,0.0724792,
2.1385,0.0982666,
2.139,0.0785828,
2.1395,0.0657654,
2.14,0.0708008,
2.1405,0.0788879,
2.141,0.0820923,
2.1415,0.0645447,
2.142,0.0209045,
2.1425,-0.0190735,
2.143,-0.0357056,
2.1435,-0.0421143,
2.144,-0.0566101,
2.1445,-0.0488281,
2.145,-0.0109863,
2.1455,0.0466919,
2.146,0.130768,
2.1465,0.167389,
2.147,0.129395,
2.1475,0.062561,
2.148,0.0143433,
2.1485,-0.00808716,
2.149,-0.0335693,
2.1495,-0.0759888,
2.15,-0.104828,
2.1505,-0.102386,
2.151,-0.0976563,
2.1515,-0.139771,
2.152,-0.248108,
2.1525,-0.29953,
2.153,-0.209198,
2.1535,-0.0740051,
2.154,0.00747681,
2.1545,0.0378418,
2.155,0.032196,
2.1555,0.00244141,
2.156,-0.0202942,
2.1565,-0.0253296,
2.157,-0.0219727,
2.1575,-0.0169373,
2.158,-0.0102234,
2.1585,-0.00289917,
2.159,-0.00869751,
2.1595,-0.0338745,
2.16,-0.0663757,
2.1605,-0.0842285,
2.161,-0.075531,
2.1615,-0.065918,
2.162,-0.0616455,
2.1625,-0.0550842,
2.163,-0.0515747,
2.1635,-0.0523376,
2.164,-0.0457764,
2.1645,-0.0262451,
2.165,0.00152588,
2.1655,0.0227356,
2.166,0.0292969,
2.1665,0.0175476,
2.167,-0.0038147,
2.1675,-0.0140381,
2.168,-0.000915527,
2.1685,0.0320435,
2.169,0.0709534,
2.1695,0.10376,
2.17,0.128021,
2.1705,0.120544,
2.171,0.0927734,
2.1715,0.0616455,
2.172,0.0305176,
2.1725,-0.0105286,
2.173,-0.0524902,
2.1735,-0.0749207,
2.174,-0.0845337,
2.1745,-0.0912476,
2.175,-0.0918579,
2.1755,-0.0881958,
2.176,-0.128479,
2.1765,-0.187225,
2.177,-0.18219,
2.1775,-0.121307,
2.178,-0.071106,
2.1785,-0.0535583,
2.179,-0.0614929,
2.1795,-0.0675964,
2.18,-0.0514221,
2.1805,-0.0158691,
2.181,0.022583,
2.1815,0.065918,
2.182,0.118561,
2.1825,0.16922,
2.183,0.193787,
2.1835,0.208588,
2.184,0.220032,
2.1845,0.207214,
2.185,0.179596,
2.1855,0.183563,
2.186,0.206757,
2.1865,0.214691,
2.187,0.187378,
2.1875,0.127563,
2.188,0.0549316,
2.1885,-0.00473022,
2.189,-0.039978,
2.1895,-0.0386047,
2.19,-0.0189209,
2.1905,-0.00930786,
2.191,0.00289917,
2.1915,0.0361633,
2.192,0.0604248,
2.1925,0.0494385,
2.193,0.017395,
2.1935,-0.0205994,
2.194,-0.0550842,
2.1945,-0.0770569,
2.195,-0.0932312,
2.1955,-0.101013,
2.196,-0.102081,
2.1965,-0.0906372,
2.197,-0.063324,
2.1975,-0.0239563,
2.198,0.000152588,
2.1985,-0.0151062,
2.199,-0.0485229,
2.1995,-0.0660706,
2.2,-0.0698853,
2.2005,-0.0674438,
2.201,-0.0636292,
2.2015,-0.0622559,
2.202,-0.058136,
2.2025,-0.0447083,
2.203,-0.0292969,
2.2035,-0.0231934,
2.204,-0.0224304,
2.2045,-0.000457764,
2.205,0.0363159,
2.2055,0.0445557,
2.206,0.0233459,
2.2065,0.00854492,
2.207,0.0111389,
2.2075,0.014801,
2.208,0.00518799,
2.2085,-0.0106812,
2.209,-0.0253296,
2.2095,-0.0357056,
2.21,-0.0460815,
2.2105,-0.0495911,
2.211,-0.0167847,
2.2115,0.0566101,
2.212,0.111237,
2.2125,0.115814,
2.213,0.0942993,
2.2135,0.0732422,
2.214,0.0662231,
2.2145,0.0619507,
2.215,0.0437927,
2.2155,0.0187683,
2.216,-0.0228882,
2.2165,-0.0926208,
2.217,-0.172729,
2.2175,-0.236206,
2.218,-0.278168,
2.2185,-0.274048,
2.219,-0.216217,
2.2195,-0.141754,
2.22,-0.0886536,
2.2205,-0.0492859,
2.221,-0.01297,
2.2215,0.00289917,
2.222,0.0050354,
2.2225,0.0262451,
2.223,0.0738525,
2.2235,0.119171,
2.224,0.148315,
2.2245,0.168457,
2.225,0.182343,
2.2255,0.19165,
2.226,0.218811,
2.2265,0.24353,
2.227,0.232391,
2.2275,0.182343,
2.228,0.12146,
2.2285,0.0549316,
2.229,-0.0195313,
2.2295,-0.0891113,
2.23,-0.131531,
2.2305,-0.137787,
2.231,-0.119934,
2.2315,-0.0965881,
2.232,-0.0897217,
2.2325,-0.103149,
2.233,-0.090332,
2.2335,-0.0442505,
2.234,-0.0119019,
2.2345,-0.000610352,
2.235,0.00213623,
2.2355,-0.00335693,
2.236,-0.00976563,
2.2365,-0.00717163,
2.237,0.00976563,
2.2375,0.025177,
2.238,0.0201416,
2.2385,0.00488281,
2.239,0.000457764,
2.2395,0.00442505,
2.24,-0.00183105,
2.2405,-0.0230408,
2.241,-0.0386047,
2.2415,-0.039978,
2.242,-0.0257874,
2.2425,-0.020752,
2.243,-0.0364685,
2.2435,-0.0572205,
2.244,-0.0733948,
2.2445,-0.080719,
2.245,-0.0793457,
2.2455,-0.0791931,
2.246,-0.0836182,
2.2465,-0.0889587,
2.247,-0.0675964,
2.2475,-0.0221252,
2.248,0.010376,
2.2485,0.00534058,
2.249,-0.00823975,
2.2495,-0.00350952,
2.25,-0.00244141,
2.2505,-0.0134277,
2.251,-0.00320435,
2.2515,0.0424194,
2.252,0.0842285,
2.2525,0.0762939,
2.253,0.0312805,
2.2535,-0.00106812,
2.254,0.0105286,
2.2545,0.0444031,
2.255,0.0526428,
2.2555,0.0382996,
2.256,0.0308228,
2.2565,0.0183105,
2.257,-0.0109863,
2.2575,-0.0318909,
2.258,-0.0247192,
2.2585,0.0108337,
2.259,0.0448608,
2.2595,0.0422668,
2.26,0.00610352,
2.2605,-0.0175476,
2.261,0.00152588,
2.2615,0.0338745,
2.262,0.0408936,
2.2625,0.0236511,
2.263,0.00671387,
2.2635,0,
2.264,-0.00518799,
2.2645,0.04776,
2.265,0.138092,
2.2655,0.178375,
2.266,0.164032,
2.2665,0.128174,
2.267,0.093689,
2.2675,0.0805664,
2.268,0.0889587,
2.2685,0.0956726,
2.269,0.093689,
2.2695,0.0671387,
2.27,0.00854492,
2.2705,-0.115204,
2.271,-0.232086,
2.2715,-0.20874,
2.272,-0.0927734,
2.2725,-0.025177,
2.273,-0.03479,
2.2735,-0.0683594,
2.274,-0.0836182,
2.2745,-0.071106,
2.275,-0.0312805,
2.2755,0.0215149,
2.276,0.0611877,
2.2765,0.0758362,
2.277,0.0575256,
2.2775,0.00976563,
2.278,-0.0436401,
2.2785,-0.0857544,
2.279,-0.122375,
2.2795,-0.141907,
2.28,-0.140381,
2.2805,-0.135498,
2.281,-0.134888,
2.2815,-0.137787,
2.282,-0.163574,
2.2825,-0.188904,
2.283,-0.161438,
2.2835,-0.0880432,
2.284,-0.0158691,
2.2845,0.0311279,
2.285,0.0572205,
2.2855,0.080719,
2.286,0.103912,
2.2865,0.110474,
2.287,0.102386,
2.2875,0.090332,
2.288,0.0724792,
2.2885,0.0364685,
2.289,0.00518799,
2.2895,0.00259399,
2.29,0.00137329,
2.2905,0.0062561,
2.291,0.0263977,
2.2915,0.0401306,
2.292,0.0453186,
2.2925,0.0527954,
2.293,0.0708008,
2.2935,0.0878906,
2.294,0.0892639,
2.2945,0.0880432,
2.295,0.0808716,
2.2955,0.0567627,
2.296,0.0259399,
2.2965,-0.00137329,
2.297,-0.019989,
2.2975,-0.0265503,
2.298,-0.0117493,
2.2985,0.000152588,
2.299,-0.0361633,
2.2995,-0.103912,
2.3,-0.111084,
2.3005,-0.0558472,
2.301,-0.0131226,
2.3015,-0.0111389,
2.302,-0.0218201,
2.3025,-0.0164795,
2.303,0.00167847,
2.3035,0.0126648,
2.304,0.00701904,
2.3045,-0.0012207,
2.305,0.00823975,
2.3055,0.0254822,
2.306,0.032959,
2.3065,0.0292969,
2.307,0.0178528,
2.3075,-0.00656128,
2.308,-0.0366211,
2.3085,-0.058136,
2.309,-0.0640869,
2.3095,-0.0669861,
2.31,-0.0732422,
2.3105,-0.0860596,
2.311,-0.101471,
2.3115,-0.0923157,
2.312,-0.0553894,
2.3125,-0.0256348,
2.313,-0.032959,
2.3135,-0.0582886,
2.314,-0.0645447,
2.3145,-0.0453186,
2.315,-0.0248718,
2.3155,-0.0209045,
2.316,-0.0256348,
2.3165,-0.0279236,
2.317,-0.0180054,
2.3175,0.00656128,
2.318,0.0262451,
2.3185,0.0395203,
2.319,0.0587463,
2.3195,0.0744629,
2.32,0.0753784,
2.3205,0.0712585,
2.321,0.0669861,
2.3215,0.0712585,
2.322,0.0993347,
2.3225,0.129395,
2.323,0.128632,
2.3235,0.110474,
2.324,0.105286,
2.3245,0.0862122,
2.325,0.0320435,
2.3255,-0.0152588,
2.326,-0.0291443,
2.3265,-0.0227356,
2.327,-0.0151062,
2.3275,0.00152588,
2.328,0.0189209,
2.3285,0.0183105,
2.329,0.00732422,
2.3295,0.00183105,
2.33,0.00427246,
2.3305,0.00656128,
2.331,-0.0038147,
2.3315,-0.032196,
2.332,-0.0686646,
2.3325,-0.0984192,
2.333,-0.122681,
2.3335,-0.135803,
2.334,-0.127716,
2.3345,-0.107117,
2.335,-0.0892639,
2.3355,-0.0749207,
2.336,-0.0486755,
2.3365,-0.0119019,
2.337,0.0250244,
2.3375,0.0495911,
2.338,0.0697327,
2.3385,0.087738,
2.339,0.0810242,
2.3395,0.0723267,
2.34,0.0831604,
2.3405,0.098114,
2.341,0.0984192,
2.3415,0.088501,
2.342,0.078125,
2.3425,0.0611877,
2.343,0.0386047,
2.3435,0.0183105,
2.344,0.0062561,
2.3445,-0.00549316,
2.345,-0.0190735,
2.3455,-0.0338745,
2.346,-0.0468445,
2.3465,-0.0500488,
2.347,-0.0418091,
2.3475,-0.0276184,
2.348,-0.0151062,
2.3485,-0.00701904,
2.349,-0.0109863,
2.3495,-0.0262451,
2.35,-0.0378418,
2.3505,-0.0419617,
2.351,-0.0444031,
2.3515,-0.0473022,
2.352,-0.0428772,
2.3525,-0.0294495,
2.353,-0.000305176,
2.3535,0.0439453,
2.354,0.0653076,
2.3545,0.0411987,
2.355,0.0135803,
2.3555,0.0140381,
2.356,0.0297546,
2.3565,0.0378418,
2.357,0.0357056,
2.3575,0.0204468,
2.358,-0.0117493,
2.3585,-0.0541687,
2.359,-0.102539,
2.3595,-0.134735,
2.36,-0.11261,
2.3605,-0.0672913,
2.361,-0.0401306,
2.3615,-0.0294495,
2.362,-0.0315857,
2.3625,-0.0360107,
2.363,-0.032196,
2.3635,-0.0242615,
2.364,-0.0131226,
2.3645,-0.00152588,
2.365,0.00167847,
2.3655,-0.00610352,
2.366,-0.00839233,
2.3665,0.00854492,
2.367,0.0343323,
2.3675,0.0521851,
2.368,0.0509644,
2.3685,0.0349426,
2.369,0.0205994,
2.3695,0.0221252,
2.37,0.0274658,
2.3705,0.027771,
2.371,0.0215149,
2.3715,0.00701904,
2.372,-0.0166321,
2.3725,-0.0396729,
2.373,-0.045166,
2.3735,-0.0288391,
2.374,-0.00656128,
2.3745,0.00900269,
2.375,0.017395,
2.3755,0.0135803,
2.376,-0.000915527,
2.3765,-0.0204468,
2.377,-0.0364685,
2.3775,-0.0352478,
2.378,-0.0157166,
2.3785,0.00518799,
2.379,0.0234985,
2.3795,0.0448608,
2.38,0.0588989,
2.3805,0.0502014,
2.381,0.0289917,
2.3815,0,
2.382,-0.0263977,
2.3825,-0.0361633,
2.383,-0.0379944,
2.3835,-0.0379944,
2.384,-0.0308228,
2.3845,0.00976563,
2.385,0.0465393,
2.3855,0.0650024,
2.386,0.0752258,
2.3865,0.0968933,
2.387,0.124207,
2.3875,0.122528,
2.388,0.08255,
2.3885,0.0350952,
2.389,0.0125122,
2.3895,0.0227356,
2.39,0.0382996,
2.3905,0.0387573,
2.391,0.0161743,
2.3915,-0.0120544,
2.392,-0.0271606,
2.3925,-0.030365,
2.393,-0.027771,
2.3935,-0.0233459,
2.394,-0.0231934,
2.3945,-0.0254822,
2.395,-0.0132751,
2.3955,-0.00350952,
2.396,-0.00839233,
2.3965,-0.0326538,
2.397,-0.0505066,
2.3975,-0.0468445,
2.398,-0.0241089,
2.3985,0.00274658,
2.399,0.0138855,
2.3995,0.0108337,
2.4,0.00671387,
2.4005,0.00778198,
2.401,0.00732422,
2.4015,-0.00167847,
2.402,-0.00961304,
2.4025,-0.0112915,
2.403,-0.0140381,
2.4035,-0.0140381,
2.404,-0.0102234,
2.4045,-0.00671387,
2.405,-0.00244141,
2.4055,0.00793457,
2.406,0.0157166,
2.4065,0.0108337,
2.407,0.0012207,
2.4075,-0.00244141,
2.408,-0.00152588,
2.4085,0.00183105,
2.409,0.0123596,
2.4095,0.0263977,
2.41,0.0279236,
2.4105,0.0198364,
2.411,0.0311279,
2.4115,0.0495911,
2.412,0.0294495,
2.4125,-0.0306702,
2.413,-0.0927734,
2.4135,-0.121613,
2.414,-0.0973511,
2.4145,-0.045929,
2.415,-0.0141907,
2.4155,-0.0119019,
2.416,-0.0215149,
2.4165,-0.0418091,
2.417,-0.0624084,
2.4175,-0.0669861,
2.418,-0.0483704,
2.4185,-0.0131226,
2.419,0.0152588,
2.4195,0.0115967,
2.42,-0.0166321,
2.4205,-0.0175476,
2.421,0.0309753,
2.4215,0.0769043,
2.422,0.093689,
2.4225,0.119324,
2.423,0.163269,
2.4235,0.174866,
2.424,0.144348,
2.4245,0.110779,
2.425,0.087738,
2.4255,0.0613403,
2.426,0.0288391,
2.4265,-0.0088501,
2.427,-0.0376892,
2.4275,-0.0460815,
2.428,-0.0505066,
2.4285,-0.0793457,
2.429,-0.124054,
2.4295,-0.16098,
2.43,-0.147095,
2.4305,-0.0837708,
2.431,-0.0299072,
2.4315,-0.0140381,
2.432,-0.0267029,
2.4325,-0.0442505,
2.433,-0.0601196,
2.4335,-0.067749,
2.434,-0.0584412,
2.4345,-0.0534058,
2.435,-0.0520325,
2.4355,-0.0524902,
2.436,-0.0520325,
2.4365,-0.0524902,
2.437,-0.0521851,
2.4375,-0.0448608,
2.438,-0.0105286,
2.4385,-0.00473022,
2.439,-0.0183105,
2.4395,-0.035553,
2.44,-0.0541687,
2.4405,-0.0697327,
2.441,-0.0817871,
2.4415,-0.0828552,
2.442,-0.0662231,
2.4425,-0.050354,
2.443,-0.0402832,
2.4435,-0.0248718,
2.444,-0.000762939,
2.4445,0.0193787,
2.445,0.00976563,
2.4455,-0.0289917,
2.446,-0.0680542,
2.4465,-0.0822449,
2.447,-0.0712585,
2.4475,-0.0532532,
2.448,-0.0349426,
2.4485,-0.00839233,
2.449,0.0175476,
2.4495,0.0384521,
2.45,0.0706482,
2.4505,0.123749,
2.451,0.168457,
2.4515,0.170898,
2.452,0.155182,
2.4525,0.17868,
2.453,0.206146,
2.4535,0.177612,
2.454,0.124207,
2.4545,0.0900269,
2.455,0.0611877,
2.4555,0.0119019,
2.456,-0.045929,
2.4565,-0.0843811,
2.457,-0.0918579,
2.4575,-0.0883484,
2.458,-0.114746,
2.4585,-0.174713,
2.459,-0.209351,
2.4595,-0.171661,
2.46,-0.106354,
2.4605,-0.0585938,
2.461,-0.0289917,
2.4615,-0.0111389,
2.462,-0.00320435,
2.4625,-0.000915527,
2.463,-0.000762939,
2.4635,-0.0012207,
2.464,-0.00442505,
2.4645,-0.00686646,
2.465,-0.0038147,
2.4655,0.00167847,
2.466,0.00442505,
2.4665,0.00213623,
2.467,-0.00152588,
2.4675,-0.0012207,
2.468,0.00564575,
2.4685,0.0112915,
2.469,0.0137329,
2.4695,0.014801,
2.47,0.0192261,
2.4705,0.0228882,
2.471,0.0172424,
2.4715,0.00320435,
2.472,-0.0132751,
2.4725,-0.0265503,
2.473,-0.0396729,
2.4735,-0.0512695,
2.474,-0.0534058,
2.4745,-0.0485229,
2.475,-0.0521851,
2.4755,-0.0759888,
2.476,-0.118103,
2.4765,-0.143433,
2.477,-0.127716,
2.4775,-0.0830078,
2.478,-0.0531006,
2.4785,-0.0498962,
2.479,-0.0375366,
2.4795,-0.00854492,
2.48,0.0291443,
2.4805,0.0650024,
2.481,0.0982666,
2.4815,0.117798,
2.482,0.116577,
2.4825,0.107727,
2.483,0.0997925,
2.4835,0.108185,
2.484,0.122375,
2.4845,0.131073,
2.485,0.14328,
2.4855,0.139771,
2.486,0.10025,
2.4865,0.0469971,
2.487,0.012207,
2.4875,0.00198364,
2.488,-0.00289917,
2.4885,-0.00656128,
2.489,-0.0088501,
2.4895,-0.0180054,
2.49,-0.037384,
2.4905,-0.0505066,
2.491,-0.0363159,
2.4915,-0.0135803,
2.492,-0.00396729,
2.4925,-0.00396729,
2.493,-0.00137329,
2.4935,0.00228882,
2.494,0.00213623,
2.4945,0.00106812,
2.495,-0.0038147,
2.4955,-0.0160217,
2.496,-0.0247192,
2.4965,-0.0195313,
2.497,-0.00869751,
2.4975,-0.0012207,
2.498,0.0187683,
2.4985,0.0454712,
2.499,0.0579834,
2.4995,0.0325012,
2.5,-0.00274658,
2.5005,-0.018158,
2.501,-0.0297546,
2.5015,-0.0430298,
2.502,-0.0300598,
2.5025,-0.00640869,
2.503,0.000762939,
2.5035,-0.0160217,
2.504,-0.0408936,
2.5045,-0.0523376,
2.505,-0.0579834,
2.5055,-0.0559998,
2.506,-0.0244141,
2.5065,0.0158691,
2.507,0.0280762,
2.5075,-0.00244141,
2.508,-0.0556946,
2.5085,-0.0994873,
2.509,-0.078125,
2.5095,-0.00213623,
2.51,0.050354,
2.5105,0.0396729,
2.511,0.00915527,
2.5115,0.00427246,
2.512,0.00228882,
2.5125,-0.00488281,
2.513,-0.000762939,
2.5135,0.0152588,
2.514,0.017395,
2.5145,-0.00228882,
2.515,-0.0283813,
2.5155,-0.0450134,
2.516,-0.0418091,
2.5165,-0.0161743,
2.517,0.0169373,
2.5175,0.0387573,
2.518,0.0416565,
2.5185,0.0413513,
2.519,0.0419617,
2.5195,0.0311279,
2.52,0.0119019,
2.5205,-0.0102234,
2.521,-0.0291443,
2.5215,-0.0340271,
2.522,-0.0221252,
2.5225,-0.00686646,
2.523,0.000762939,
2.5235,-0.000762939,
2.524,0.00137329,
2.5245,0.0146484,
2.525,0.0317383,
2.5255,0.0509644,
2.526,0.0627136,
2.5265,0.0541687,
2.527,0.0317383,
2.5275,0.00106812,
2.528,-0.0283813,
2.5285,-0.0567627,
2.529,-0.0718689,
2.5295,-0.0793457,
2.53,-0.0975037,
2.5305,-0.101013,
2.531,-0.0660706,
2.5315,-0.0338745,
2.532,-0.0328064,
2.5325,-0.0454712,
2.533,-0.0401306,
2.5335,-0.0106812,
2.534,0.0192261,
2.5345,0.0344849,
2.535,0.0334167,
2.5355,0.0341797,
2.536,0.0445557,
2.5365,0.0454712,
2.537,0.0534058,
2.5375,0.0816345,
2.538,0.0956726,
2.5385,0.0993347,
2.539,0.0588989,
2.5395,-0.00595093,
2.54,-0.0430298,
2.5405,-0.0456238,
2.541,-0.0340271,
2.5415,-0.0187683,
2.542,-0.00183105,
2.5425,0.0100708,
2.543,0.0180054,
2.5435,0.0274658,
2.544,0.0286865,
2.5445,0.020752,
2.545,0.00549316,
2.5455,-0.0216675,
2.546,-0.0363159,
2.5465,-0.0245667,
2.547,-0.00350952,
2.5475,0.0117493,
2.548,0.0213623,
2.5485,0.0279236,
2.549,0.0314331,
2.5495,0.0390625,
2.55,0.0483704,
2.5505,0.0436401,
2.551,0.0286865,
2.5515,0.0111389,
2.552,-0.0152588,
2.5525,-0.0396729,
2.553,-0.0476074,
2.5535,-0.0436401,
2.554,-0.0358582,
2.5545,-0.0311279,
2.555,-0.032196,
2.5555,-0.0540161,
2.556,-0.093689,
2.5565,-0.120697,
2.557,-0.108795,
2.5575,-0.075531,
2.558,-0.0527954,
2.5585,-0.0418091,
2.559,-0.0224304,
2.5595,0.00228882,
2.56,0.0177002,
2.5605,0.020752,
2.561,0.0204468,
2.5615,0.0233459,
2.562,0.0212097,
2.5625,0.0143433,
2.563,0.0114441,
2.5635,0.0160217,
2.564,0.0184631,
2.5645,0.0115967,
2.565,-0.00518799,
2.5655,-0.019989,
2.566,-0.0205994,
2.5665,-0.0115967,
2.567,-0.00228882,
2.5675,0.00854492,
2.568,0.00839233,
2.5685,-0.00640869,
2.569,-0.0177002,
2.5695,-0.0187683,
2.57,-0.018158,
2.5705,-0.0117493,
2.571,0.0152588,
2.5715,0.0448608,
2.572,0.0457764,
2.5725,0.0276184,
2.573,0.0154114,
2.5735,0.00976563,
2.574,-0.00488281,
2.5745,-0.025177,
2.575,-0.0405884,
2.5755,-0.0509644,
2.576,-0.0637817,
2.5765,-0.0869751,
2.577,-0.111542,
2.5775,-0.116119,
2.578,-0.106354,
2.5785,-0.0976563,
2.579,-0.0883484,
2.5795,-0.0744629,
2.58,-0.0559998,
2.5805,-0.0334167,
2.581,-0.0170898,
2.5815,-0.01297,
2.582,-0.0193787,
2.5825,-0.0201416,
2.583,0.0105286,
2.5835,0.0453186,
2.584,0.0563049,
2.5845,0.0418091,
2.585,0.0163269,
2.5855,-0.0137329,
2.586,-0.0454712,
2.5865,-0.0582886,
2.587,-0.0325012,
2.5875,0.0212097,
2.588,0.0747681,
2.5885,0.11261,
2.589,0.110168,
2.5895,0.0740051,
2.59,0.0819397,
2.5905,0.153809,
2.591,0.207672,
2.5915,0.216827,
2.592,0.211334,
2.5925,0.161133,
2.593,0.0622559,
2.5935,0.00167847,
2.594,-0.00305176,
2.5945,0.0105286,
2.595,0.0212097,
2.5955,0.00640869,
2.596,-0.0448608,
2.5965,-0.0999451,
2.597,-0.0994873,
2.5975,-0.0572205,
2.598,-0.0308228,
2.5985,-0.045166,
2.599,-0.0584412,
2.5995,-0.0489807,
2.6,-0.0247192,
2.6005,-0.00549316,
2.601,0.000610352,
2.6015,0.000457764,
2.602,-0.00762939,
2.6025,-0.0245667,
2.603,-0.0398254,
2.6035,-0.0482178,
2.604,-0.0466919,
2.6045,-0.0479126,
2.605,-0.0640869,
2.6055,-0.0927734,
2.606,-0.110168,
2.6065,-0.0996399,
2.607,-0.0874329,
2.6075,-0.0860596,
2.608,-0.0862122,
2.6085,-0.0889587,
2.609,-0.100098,
2.6095,-0.0999451,
2.61,-0.0566101,
2.6105,0.0332642,
2.611,0.124054,
2.6115,0.162659,
2.612,0.153809,
2.6125,0.13855,
2.613,0.142059,
2.6135,0.142975,
2.614,0.117645,
2.6145,0.0952148,
2.615,0.0921631,
2.6155,0.0891113,
2.616,0.0738525,
2.6165,0.0508118,
2.617,0.0239563,
2.6175,0.00350952,
2.618,0.00106812,
2.6185,0.010376,
2.619,0.00946045,
2.6195,-0.00762939,
2.62,-0.0280762,
2.6205,-0.0395203,
2.621,-0.0390625,
2.6215,-0.027771,
2.622,-0.0216675,
2.6225,-0.0361633,
2.623,-0.0613403,
2.6235,-0.0856018,
2.624,-0.0984192,
2.6245,-0.0994873,
2.625,-0.0975037,
2.6255,-0.0897217,
2.626,-0.0845337,
2.6265,-0.0869751,
2.627,-0.0862122,
2.6275,-0.0627136,
2.628,-0.0120544,
2.6285,0.043335,
2.629,0.0706482,
2.6295,0.0698853,
2.63,0.0637817,
2.6305,0.0679016,
2.631,0.092926,
2.6315,0.127106,
2.632,0.133057,
2.6325,0.102844,
2.633,0.0547791,
2.6335,0.00778198,
2.634,-0.0289917,
2.6345,-0.0445557,
2.635,-0.0413513,
2.6355,-0.0346375,
2.636,-0.035553,
2.6365,-0.032196,
2.637,-0.0146484,
2.6375,-0.00457764,
2.638,-0.00289917,
2.6385,-0.00320435,
2.639,-0.00320435,
2.6395,-0.00335693,
2.64,-0.00366211,
2.6405,0.00167847,
2.641,0.0315857,
2.6415,0.0634766,
2.642,0.0656128,
2.6425,0.0402832,
2.643,0.014801,
2.6435,-0.00473022,
2.644,-0.017395,
2.6445,-0.0262451,
2.645,-0.0341797,
2.6455,-0.0390625,
2.646,-0.0517273,
2.6465,-0.0674438,
2.647,-0.0630188,
2.6475,-0.0523376,
2.648,-0.0512695,
2.6485,-0.0546265,
2.649,-0.0608826,
2.6495,-0.0698853,
2.65,-0.0694275,
2.6505,-0.0552368,
2.651,-0.0408936,
2.6515,-0.0242615,
2.652,0.00488281,
2.6525,0.0408936,
2.653,0.0654602,
2.6535,0.0990295,
2.654,0.172577,
2.6545,0.239563,
2.655,0.258331,
2.6555,0.239105,
2.656,0.203094,
2.6565,0.155182,
2.657,0.10437,
2.6575,0.0592041,
2.658,0.00839233,
2.6585,-0.052948,
2.659,-0.112305,
2.6595,-0.150299,
2.66,-0.176697,
2.6605,-0.19104,
2.661,-0.144348,
2.6615,-0.0483704,
2.662,0.0167847,
2.6625,0.0370789,
2.663,0.0375366,
2.6635,0.027771,
2.664,0.00869751,
2.6645,-0.00305176,
2.665,-0.0126648,
2.6655,-0.0254822,
2.666,-0.0267029,
2.6665,-0.00747681,
2.667,0.0120544,
2.6675,0.0186157,
2.668,0.0231934,
2.6685,0.018158,
2.669,-0.00686646,
2.6695,-0.0299072,
2.67,-0.0387573,
2.6705,-0.0439453,
2.671,-0.0485229,
2.6715,-0.0515747,
2.672,-0.0419617,
2.6725,-0.0164795,
2.673,0.0111389,
2.6735,0.0344849,
2.674,0.0357056,
2.6745,0.0126648,
2.675,-0.0215149,
2.6755,-0.0596619,
2.676,-0.0849915,
2.6765,-0.0801086,
2.677,-0.078125,
2.6775,-0.101471,
2.678,-0.132294,
2.6785,-0.141754,
2.679,-0.10788,
2.6795,-0.0569153,
2.68,-0.0230408,
2.6805,-0.00305176,
2.681,0.0178528,
2.6815,0.0286865,
2.682,0.027771,
2.6825,0.0358582,
2.683,0.0572205,
2.6835,0.0767517,
2.684,0.0839233,
2.6845,0.0691223,
2.685,0.0346375,
2.6855,-0.0109863,
2.686,-0.0505066,
2.6865,-0.0776672,
2.687,-0.0764465,
2.6875,-0.0434875,
2.688,-0.0175476,
2.6885,-0.0238037,
2.689,-0.03479,
2.6895,-0.0289917,
2.69,-0.0126648,
2.6905,-0.00228882,
2.691,-0.00106812,
2.6915,-0.0143433,
2.692,-0.0317383,
2.6925,-0.0323486,
2.693,-0.0119019,
2.6935,0.0222778,
2.694,0.0424194,
2.6945,0.0422668,
2.695,0.0233459,
2.6955,0.00701904,
2.696,0.0257874,
2.6965,0.0576782,
2.697,0.0601196,
2.6975,0.032959,
2.698,0.00396729,
2.6985,0.00350952,
2.699,0.0228882,
2.6995,0.0418091,
2.7,0.0544739,
2.7005,0.0746155,
2.701,0.0956726,
2.7015,0.0961304,
2.702,0.0743103,
2.7025,0.0483704,
2.703,0.0334167,
2.7035,0.0219727,
2.704,0.0154114,
2.7045,0.0204468,
2.705,0.0314331,
2.7055,0.039978,
2.706,0.0411987,
2.7065,0.0331116,
2.707,0.0117493,
2.7075,-0.00213623,
2.708,0.01297,
2.7085,0.0315857,
2.709,0.0157166,
2.7095,-0.025177,
2.71,-0.0621033,
2.7105,-0.0869751,
2.711,-0.113831,
2.7115,-0.133514,
2.712,-0.104218,
2.7125,-0.0473022,
2.713,-0.0180054,
2.7135,-0.0335693,
2.714,-0.0596619,
2.7145,-0.067749,
2.715,-0.0567627,
2.7155,-0.0346375,
2.716,-0.0115967,
2.7165,0.00137329,
2.717,0.000610352,
2.7175,-0.00839233,
2.718,-0.0141907,
2.7185,-0.0167847,
2.719,-0.0158691,
2.7195,-0.0131226,
2.72,-0.00610352,
2.7205,0.00640869,
2.721,0.0140381,
2.7215,0.00747681,
2.722,-0.00854492,
2.7225,-0.015564,
2.723,-0.00366211,
2.7235,0.0158691,
2.724,0.0273132,
2.7245,0.032196,
2.725,0.0411987,
2.7255,0.045929,
2.726,0.0390625,
2.7265,0.0308228,
2.727,0.0231934,
2.7275,0.014801,
2.728,0.000915527,
2.7285,-0.0151062,
2.729,-0.0337219,
2.7295,-0.0468445,
2.73,-0.0532532,
2.7305,-0.0654602,
2.731,-0.0730896,
2.7315,-0.0590515,
2.732,-0.0346375,
2.7325,-0.0178528,
2.733,-0.00701904,
2.7335,-0.0038147,
2.734,0.000610352,
2.7345,0.0105286,
2.735,0.0117493,
2.7355,0.00335693,
2.736,0.0012207,
2.7365,0.0125122,
2.737,0.0204468,
2.7375,0.0187683,
2.738,0.0149536,
2.7385,0.0166321,
2.739,0.0143433,
2.7395,0.00167847,
2.74,-0.00701904,
2.7405,-0.00808716,
2.741,-0.00213623,
2.7415,0.0202942,
2.742,0.0653076,
2.7425,0.0993347,
2.743,0.104065,
2.7435,0.0848389,
2.744,0.0489807,
2.7445,0.0151062,
2.745,0.00274658,
2.7455,0.00915527,
2.746,0.00183105,
2.7465,-0.0263977,
2.747,-0.0532532,
2.7475,-0.0843811,
2.748,-0.125275,
2.7485,-0.110168,
2.749,-0.0300598,
2.7495,0.0163269,
2.75,-0.00473022,
2.7505,-0.0506592,
2.751,-0.0909424,
2.7515,-0.123291,
2.752,-0.137329,
2.7525,-0.140686,
2.753,-0.134277,
2.7535,-0.119324,
2.754,-0.091095,
2.7545,-0.059967,
2.755,-0.0466919,
2.7555,-0.0483704,
2.756,-0.0637817,
2.7565,-0.0744629,
2.757,-0.0570679,
2.7575,-0.0294495,
2.758,-0.0195313,
2.7585,-0.00488281,
2.759,0.027771,
2.7595,0.0657654,
2.76,0.109253,
2.7605,0.157623,
2.761,0.189667,
2.7615,0.201416,
2.762,0.180511,
2.7625,0.121613,
2.763,0.0694275,
2.7635,0.0668335,
2.764,0.09552,
2.7645,0.120239,
2.765,0.120392,
2.7655,0.121307,
2.766,0.123596,
2.7665,0.112457,
2.767,0.0942993,
2.7675,0.0715637,
2.768,0.043335,
2.7685,0.0141907,
2.769,-0.0117493,
2.7695,-0.0285339,
2.77,-0.0386047,
2.7705,-0.0537109,
2.771,-0.0843811,
2.7715,-0.128479,
2.772,-0.13382,
2.7725,-0.0949097,
2.773,-0.0578308,
2.7735,-0.0469971,
2.774,-0.0466919,
2.7745,-0.0497437,
2.775,-0.0535583,
2.7755,-0.0486755,
2.776,-0.0405884,
2.7765,-0.0358582,
2.777,-0.0386047,
2.7775,-0.0430298,
2.778,-0.0465393,
2.7785,-0.0473022,
2.779,-0.0476074,
2.7795,-0.0483704,
2.78,-0.0482178,
2.7805,-0.0502014,
2.781,-0.0572205,
2.7815,-0.0604248,
2.782,-0.0520325,
2.7825,-0.0256348,
2.783,0.00335693,
2.7835,0.0202942,
2.784,0.0267029,
2.7845,0.0349426,
2.785,0.0372314,
2.7855,0.0288391,
2.786,0.0238037,
2.7865,0.017395,
2.787,0.00854492,
2.7875,0.000762939,
2.788,-0.00396729,
2.7885,-0.0137329,
2.789,-0.0379944,
2.7895,-0.0657654,
2.79,-0.0778198,
2.7905,-0.0750732,
2.791,-0.057373,
2.7915,-0.0331116,
2.792,-0.0105286,
2.7925,0.00335693,
2.793,0.0128174,
2.7935,0.0164795,
2.794,0.0227356,
2.7945,0.0306702,
2.795,0.0376892,
2.7955,0.0387573,
2.796,0.0335693,
2.7965,0.035553,
2.797,0.0361633,
2.7975,0.0465393,
2.798,0.0666809,
2.7985,0.08255,
2.799,0.0843811,
2.7995,0.0810242,
2.8,0.0749207,
2.8005,0.0558472,
2.801,0.0361633,
2.8015,0.0360107,
2.802,0.043335,
2.8025,0.0279236,
2.803,-0.00244141,
2.8035,-0.00869751,
2.804,0.015564,
2.8045,0.0366211,
2.805,0.040741,
2.8055,0.0331116,
2.806,0.0186157,
2.8065,-0.000762939,
2.807,-0.0192261,
2.8075,-0.0238037,
2.808,-0.019989,
2.8085,-0.0262451,
2.809,-0.0465393,
2.8095,-0.0587463,
2.81,-0.0485229,
2.8105,-0.0338745,
2.811,-0.0358582,
2.8115,-0.0505066,
2.812,-0.0604248,
2.8125,-0.0608826,
2.813,-0.0502014,
2.8135,-0.0268555,
2.814,0.00274658,
2.8145,0.0263977,
2.815,0.0352478,
2.8155,0.0427246,
2.816,0.0566101,
2.8165,0.0621033,
2.817,0.0534058,
2.8175,0.0593567,
2.818,0.0718689,
2.8185,0.0648499,
2.819,0.0489807,
2.8195,0.0257874,
2.82,-0.00244141,
2.8205,-0.0198364,
2.821,-0.0244141,
2.8215,-0.0253296,
2.822,-0.0346375,
2.8225,-0.0453186,
2.823,-0.0546265,
2.8235,-0.0746155,
2.824,-0.0740051,
2.8245,-0.00213623,
2.825,0.0784302,
2.8255,0.0944519,
2.826,0.0656128,
2.8265,0.0393677,
2.827,0.0288391,
2.8275,0.0160217,
2.828,-0.0114441,
2.8285,-0.037384,
2.829,-0.0511169,
2.8295,-0.0596619,
2.83,-0.0588989,
2.8305,-0.0434875,
2.831,-0.0209045,
2.8315,-0.014801,
2.832,-0.0265503,
2.8325,-0.0421143,
2.833,-0.0453186,
2.8335,-0.0476074,
2.834,-0.0506592,
2.8345,-0.0424194,
2.835,-0.0196838,
2.8355,0.00244141,
2.836,0.0114441,
2.8365,0.00289917,
2.837,-0.00915527,
2.8375,-0.0201416,
2.838,-0.0283813,
2.8385,-0.0396729,
2.839,-0.0624084,
2.8395,-0.096283,
2.84,-0.119171,
2.8405,-0.125275,
2.841,-0.121765,
2.8415,-0.0863647,
2.842,-0.0352478,
2.8425,-0.0180054,
2.843,-0.0201416,
2.8435,-0.0189209,
2.844,-0.0169373,
2.8445,-0.0163269,
2.845,-0.00656128,
2.8455,0.0230408,
2.846,0.0656128,
2.8465,0.119019,
2.847,0.163422,
2.8475,0.188446,
2.848,0.183868,
2.8485,0.160065,
2.849,0.139618,
2.8495,0.124359,
2.85,0.0994873,
2.8505,0.0544739,
2.851,0.000762939,
2.8515,-0.0448608,
2.852,-0.0688171,
2.8525,-0.0657654,
2.853,-0.0521851,
2.8535,-0.0482178,
2.854,-0.0485229,
2.8545,-0.045929,
2.855,-0.040741,
2.8555,-0.0349426,
2.856,-0.0375366,
2.8565,-0.0492859,
2.857,-0.063324,
2.8575,-0.0700378,
2.858,-0.0740051,
2.8585,-0.0773621,
2.859,-0.0695801,
2.8595,-0.0575256,
2.86,-0.0431824,
2.8605,-0.0192261,
2.861,0.00396729,
2.8615,0.0408936,
2.862,0.103149,
2.8625,0.164032,
2.863,0.182037,
2.8635,0.166626,
2.864,0.145264,
2.8645,0.128784,
2.865,0.109863,
2.8655,0.0865173,
2.866,0.0753784,
2.8665,0.0665283,
2.867,0.0244141,
2.8675,-0.0634766,
2.868,-0.127563,
2.8685,-0.122528,
2.869,-0.0749207,
2.8695,-0.032196,
2.87,-0.015564,
2.8705,-0.0167847,
2.871,-0.0234985,
2.8715,-0.0305176,
2.872,-0.0376892,
2.8725,-0.0450134,
2.873,-0.0576782,
2.8735,-0.0668335,
2.874,-0.063324,
2.8745,-0.0476074,
2.875,-0.0300598,
2.8755,-0.0230408,
2.876,-0.027771,
2.8765,-0.0413513,
2.877,-0.0566101,
2.8775,-0.0561523,
2.878,-0.0325012,
2.8785,-0.00366211,
2.879,0.0151062,
2.8795,0.0306702,
2.88,0.0411987,
2.8805,0.0395203,
2.881,0.0260925,
2.8815,0.00564575,
2.882,-0.0115967,
2.8825,-0.0189209,
2.883,-0.0210571,
2.8835,-0.0169373,
2.884,-0.0117493,
2.8845,-0.0132751,
2.885,-0.0140381,
2.8855,-0.0163269,
2.886,-0.0144958,
2.8865,-0.00488281,
2.887,0.00869751,
2.8875,0.0106812,
2.888,0.00595093,
2.8885,0.000762939,
2.889,-0.00427246,
2.8895,0.00198364,
2.89,0.0183105,
2.8905,0.0248718,
2.891,0.01297,
2.8915,0.00244141,
2.892,-0.00610352,
2.8925,-0.0201416,
2.893,-0.0326538,
2.8935,-0.0439453,
2.894,-0.0415039,
2.8945,-0.0193787,
2.895,-0.0109863,
2.8955,-0.0164795,
2.896,-0.0111389,
2.8965,0.00320435,
2.897,0.0167847,
2.8975,0.0370789,
2.898,0.0735474,
2.8985,0.108643,
2.899,0.114288,
2.8995,0.0790405,
2.9,0.0401306,
2.9005,0.0422668,
2.901,0.0714111,
2.9015,0.08255,
2.902,0.0686646,
2.9025,0.0466919,
2.903,0.0296021,
2.9035,0.00289917,
2.904,-0.0370789,
2.9045,-0.0611877,
2.905,-0.0482178,
2.9055,-0.010376,
2.906,0.00839233,
2.9065,-0.00534058,
2.907,-0.0250244,
2.9075,-0.0382996,
2.908,-0.0485229,
2.9085,-0.0434875,
2.909,-0.010376,
2.9095,0.0271606,
2.91,0.0386047,
2.9105,0.0202942,
2.911,-0.00335693,
2.9115,-0.00534058,
2.912,-0.000152588,
2.9125,-0.0115967,
2.913,-0.0387573,
2.9135,-0.0692749,
2.914,-0.104828,
2.9145,-0.120239,
2.915,-0.0794983,
2.9155,-0.0132751,
2.916,0.0231934,
2.9165,0.0343323,
2.917,0.0440979,
2.9175,0.0567627,
2.918,0.0494385,
2.9185,0.0213623,
2.919,0.0109863,
2.9195,0.0286865,
2.92,0.0460815,
2.9205,0.0465393,
2.921,0.0331116,
2.9215,0.0169373,
2.922,-0.00198364,
2.9225,-0.0169373,
2.923,-0.0308228,
2.9235,-0.0474548,
2.924,-0.055542,
2.9245,-0.0534058,
2.925,-0.0584412,
2.9255,-0.0639343,
2.926,-0.0535583,
2.9265,-0.0299072,
2.927,-0.0062561,
2.9275,0.0106812,
2.928,0.0126648,
2.9285,0.00991821,
2.929,0.0141907,
2.9295,0.0260925,
2.93,0.0350952,
2.9305,0.0402832,
2.931,0.0430298,
2.9315,0.0332642,
2.932,0.0187683,
2.9325,0.0163269,
2.933,0.0262451,
2.9335,0.0224304,
2.934,-0.00442505,
2.9345,-0.0323486,
2.935,-0.0379944,
2.9355,-0.0334167,
2.936,-0.039978,
2.9365,-0.0598145,
2.937,-0.0839233,
2.9375,-0.0946045,
2.938,-0.0907898,
2.9385,-0.0732422,
2.939,-0.0494385,
2.9395,-0.0349426,
2.94,-0.0282288,
2.9405,-0.0219727,
2.941,-0.0126648,
2.9415,-0.000457764,
2.942,0.0158691,
2.9425,0.0288391,
2.943,0.0350952,
2.9435,0.032959,
2.944,0.0334167,
2.9445,0.0357056,
2.945,0.0317383,
2.9455,0.0245667,
2.946,0.0291443,
2.9465,0.0257874,
2.947,0.0108337,
2.9475,0.00747681,
2.948,0.0213623,
2.9485,0.0369263,
2.949,0.0354004,
2.9495,0.0184631,
2.95,-0.0132751,
2.9505,-0.0506592,
2.951,-0.063324,
2.9515,-0.045929,
2.952,-0.0273132,
2.9525,-0.0184631,
2.953,-0.015564,
2.9535,-0.00976563,
2.954,0.00457764,
2.9545,0.0215149,
2.955,0.0370789,
2.9555,0.0421143,
2.956,0.0357056,
2.9565,0.0300598,
2.957,0.0378418,
2.9575,0.0408936,
2.958,0.030365,
2.9585,0.0205994,
2.959,0.0341797,
2.9595,0.043335,
2.96,0.0271606,
2.9605,-0.00183105,
2.961,-0.0117493,
2.9615,-0.00732422,
2.962,-0.00701904,
2.9625,-0.0132751,
2.963,-0.0202942,
2.9635,-0.0248718,
2.964,-0.0302124,
2.9645,-0.0328064,
2.965,-0.0335693,
2.9655,-0.0288391,
2.966,-0.0215149,
2.9665,-0.0193787,
2.967,-0.0212097,
2.9675,-0.022583,
2.968,-0.0224304,
2.9685,-0.0221252,
2.969,-0.0257874,
2.9695,-0.0288391,
2.97,-0.0273132,
2.9705,-0.0296021,
2.971,-0.032959,
2.9715,-0.0318909,
2.972,-0.0239563,
2.9725,-0.0175476,
2.973,-0.0146484,
2.9735,-0.0144958,
2.974,-0.0102234,
2.9745,-0.00106812,
2.975,0.00106812,
2.9755,0,
2.976,-0.00213623,
2.9765,-0.0128174,
2.977,-0.0334167,
2.9775,-0.0471497,
2.978,-0.0480652,
2.9785,-0.0375366,
2.979,-0.022583,
2.9795,-0.0112915,
2.98,-0.0111389,
2.9805,-0.00991821,
2.981,-0.00442505,
2.9815,0.00656128,
2.982,0.0195313,
2.9825,0.0305176,
2.983,0.0302124,
2.9835,0.0215149,
2.984,0.0108337,
2.9845,-0.00244141,
2.985,-0.0170898,
2.9855,-0.0241089,
2.986,-0.0302124,
2.9865,-0.0402832,
2.987,-0.0531006,
2.9875,-0.0532532,
2.988,-0.0424194,
2.9885,-0.0325012,
2.989,-0.0230408,
2.9895,-0.0120544,
2.99,0.00289917,
2.9905,0.00915527,
2.991,0.00152588,
2.9915,-0.00289917,
2.992,-0.000610352,
2.9925,0.00305176,
2.993,0.00701904,
2.9935,0.0172424,
2.994,0.0230408,
2.9945,0.0135803,
2.995,0.00411987,
2.9955,0.00564575,
2.996,0.0100708,
2.9965,0.0138855,
2.997,0.0114441,
2.9975,0.00518799,
2.998,0.00686646,
2.9985,0.0219727,
2.999,0.0296021,
2.9995,0.00900269,
3,-0.0256348,
3.0005,-0.0524902,
3.001,-0.0614929,
3.0015,-0.0579834,
3.002,-0.0379944,
3.0025,-0.00366211,
3.003,0.0210571,
3.0035,0.0238037,
3.004,0.00991821,
3.0045,0.000762939,
3.005,0.0128174,
3.0055,0.0411987,
3.006,0.0712585,
3.0065,0.0772095,
3.007,0.0572205,
3.0075,0.0253296,
3.008,0.00213623,
3.0085,-0.00839233,
3.009,-0.0111389,
3.0095,-0.00717163,
3.01,-0.00274658,
3.0105,-0.00946045,
3.011,-0.0132751,
3.0115,-0.000915527,
3.012,0.0126648,
3.0125,0.027771,
3.013,0.0404358,
3.0135,0.0270081,
3.014,0.000610352,
3.0145,-0.0144958,
3.015,-0.012207,
3.0155,0.0038147,
3.016,0.019989,
3.0165,0.0210571,
3.017,0.0137329,
3.0175,0.00259399,
3.018,-0.0291443,
3.0185,-0.0813293,
3.019,-0.103912,
3.0195,-0.0682068,
3.02,-0.00396729,
3.0205,0.043335,
3.021,0.0552368,
3.0215,0.0413513,
3.022,0.0270081,
3.0225,0.0202942,
3.023,0.0198364,
3.0235,0.0282288,
3.024,0.0469971,
3.0245,0.0624084,
3.025,0.0523376,
3.0255,0.0308228,
3.026,0.0195313,
3.0265,0.0241089,
3.027,0.0169373,
3.0275,-0.0314331,
3.028,-0.0738525,
3.0285,-0.065918,
3.029,-0.0326538,
3.0295,-0.01297,
3.03,-0.00976563,
3.0305,-0.00823975,
3.031,-0.00717163,
3.0315,-0.00900269,
3.032,-0.00686646,
3.0325,0.00396729,
3.033,0.0135803,
3.0335,0.0175476,
3.034,0.00961304,
3.0345,0.00259399,
3.035,0.00198364,
3.0355,0.00686646,
3.036,0.0102234,
3.0365,0.0106812,
3.037,0.00534058,
3.0375,-0.00869751,
3.038,-0.0158691,
3.0385,-0.0224304,
3.039,-0.0473022,
3.0395,-0.0706482,
3.04,-0.0479126,
3.0405,0.000610352,
3.041,0.0468445,
3.0415,0.0744629,
3.042,0.0811768,
3.0425,0.0801086,
3.043,0.070343,
3.0435,0.0721741,
3.044,0.106812,
3.0445,0.131836,
3.045,0.11673,
3.0455,0.0819397,
3.046,0.0437927,
3.0465,0.0164795,
3.047,0.0212097,
3.0475,0.0337219,
3.048,0.0238037,
3.0485,-0.0151062,
3.049,-0.0619507,
3.0495,-0.0917053,
3.05,-0.101624,
3.0505,-0.0924683,
3.051,-0.0592041,
3.0515,-0.0227356,
3.052,-0.00335693,
3.0525,0.00839233,
3.053,0.0222778,
3.0535,0.0219727,
3.054,-0.0038147,
3.0545,-0.0192261,
3.055,-0.00595093,
3.0555,-0.00411987,
3.056,-0.0267029,
3.0565,-0.0508118,
3.057,-0.0613403,
3.0575,-0.0564575,
3.058,-0.0556946,
3.0585,-0.0582886,
3.059,-0.0398254,
3.0595,-0.00427246,
3.06,0.0245667,
3.0605,0.0427246,
3.061,0.0604248,
3.0615,0.0674438,
3.062,0.0570679,
3.0625,0.0325012,
3.063,-0.00289917,
3.0635,-0.0276184,
3.064,-0.0445557,
3.0645,-0.0630188,
3.065,-0.0788879,
3.0655,-0.063324,
3.066,-0.0350952,
3.0665,-0.0302124,
3.067,-0.0384521,
3.0675,-0.0270081,
3.068,-0.00137329,
3.0685,0.0137329,
3.069,0.010376,
3.0695,0.000457764,
3.07,-0.00823975,
3.0705,-0.0241089,
3.071,-0.0517273,
3.0715,-0.118408,
3.072,-0.179596,
3.0725,-0.128174,
3.073,-0.0115967,
3.0735,0.0485229,
3.074,0.0595093,
3.0745,0.0769043,
3.075,0.0863647,
3.0755,0.0817871,
3.076,0.0715637,
3.0765,0.0546265,
3.077,0.0196838,
3.0775,-0.00518799,
3.078,-0.0154114,
3.0785,-0.0540161,
3.079,-0.111389,
3.0795,-0.110016,
3.08,-0.0427246,
3.0805,0.0166321,
3.081,0.0361633,
3.0815,0.035553,
3.082,0.030365,
3.0825,0.0117493,
3.083,0.00335693,
3.0835,0.0315857,
3.084,0.0559998,
3.0845,0.0442505,
3.085,0.027771,
3.0855,0.0238037,
3.086,0.0178528,
3.0865,0.00946045,
3.087,0.00320435,
3.0875,-0.000457764,
3.088,-0.00427246,
3.0885,-0.00427246,
3.089,0.0088501,
3.0895,0.0134277,
3.09,-0.00442505,
3.0905,-0.0222778,
3.091,-0.0299072,
3.0915,-0.0386047,
3.092,-0.0579834,
3.0925,-0.0775146,
3.093,-0.0901794,
3.0935,-0.0956726,
3.094,-0.0891113,
3.0945,-0.0746155,
3.095,-0.0700378,
3.0955,-0.0679016,
3.096,-0.052948,
3.0965,-0.0402832,
3.097,-0.0418091,
3.0975,-0.0314331,
3.098,-0.0134277,
3.0985,-0.0169373,
3.099,-0.0454712,
3.0995,-0.0662231,
3.1,-0.058136,
3.1005,-0.0491333,
3.101,-0.0418091,
3.1015,0.000457764,
3.102,0.0578308,
