0,-0.0109863,
0.0005,-0.0128174,
0.001,-0.00900269,
0.0015,-0.00488281,
0.002,-0.00335693,
0.0025,-0.000457764,
0.003,0.0038147,
0.0035,0.000152588,
0.004,-0.00671387,
0.0045,-0.00701904,
0.005,-0.00610352,
0.0055,-0.0062561,
0.006,-0.00305176,
0.0065,0.00167847,
0.007,0.00198364,
0.0075,0.00183105,
0.008,0.00137329,
0.0085,0.000457764,
0.009,0.00335693,
0.0095,0.000305176,
0.01,-0.00350952,
0.0105,-0.00244141,
0.011,-0.000457764,
0.0115,-0.00137329,
0.012,-0.000457764,
0.0125,-0.00152588,
0.013,-0.00396729,
0.0135,-0.00106812,
0.014,0.000610352,
0.0145,-0.00106812,
0.015,-0.00289917,
0.0155,-0.00289917,
0.016,-0.000457764,
0.0165,0.00106812,
0.017,0.00106812,
0.0175,0,
0.018,-0.00778198,
0.0185,-0.01297,
0.019,-0.00488281,
0.0195,0.0115967,
0.02,0.0186157,
0.0205,0.00869751,
0.021,-0.0115967,
0.0215,-0.0260925,
0.022,-0.0210571,
0.0225,-0.00534058,
0.023,0.0062561,
0.0235,0.00442505,
0.024,-0.00320435,
0.0245,-0.00442505,
0.025,-0.000762939,
0.0255,0.0038147,
0.026,0.00671387,
0.0265,-0.00488281,
0.027,-0.0254822,
0.0275,-0.0292969,
0.028,-0.0241089,
0.0285,-0.0183105,
0.029,-0.0114441,
0.0295,-0.00473022,
0.03,0.00137329,
0.0305,0.00350952,
0.031,0.00549316,
0.0315,0.00778198,
0.032,0.00579834,
0.0325,-0.00289917,
0.033,-0.00839233,
0.0335,-0.00289917,
0.034,0.00747681,
0.0345,0.00778198,
0.035,-0.00137329,
0.0355,-0.00656128,
0.036,-0.00244141,
0.0365,0.000457764,
0.037,-0.00579834,
0.0375,-0.00778198,
0.038,-0.00396729,
0.0385,-0.00442505,
0.039,-0.00549316,
0.0395,-0.00717163,
0.04,-0.00823975,
0.0405,-0.0126648,
0.041,-0.0161743,
0.0415,-0.0109863,
0.042,-0.00396729,
0.0425,0,
0.043,-0.00167847,
0.0435,-0.00961304,
0.044,-0.00854492,
0.0445,-0.000915527,
0.045,0.00137329,
0.0455,-0.00396729,
0.046,-0.00869751,
0.0465,-0.010376,
0.047,-0.00762939,
0.0475,-0.00350952,
0.048,-0.00396729,
0.0485,-0.00671387,
0.049,-0.00656128,
0.0495,-0.00457764,
0.05,-0.00488281,
0.0505,-0.00442505,
0.051,-0.00213623,
0.0515,-0.00305176,
0.052,-0.00442505,
0.0525,-0.00564575,
0.053,-0.00579834,
0.0535,-0.00427246,
0.054,-0.00335693,
0.0545,-0.000610352,
0.055,0.00244141,
0.0555,-0.00366211,
0.056,-0.00854492,
0.0565,-0.00732422,
0.057,-0.00320435,
0.0575,0,
0.058,0.00289917,
0.0585,0.00518799,
0.059,0.00350952,
0.0595,0.000457764,
0.06,-0.00198364,
0.0605,-0.00167847,
0.061,-0.00259399,
0.0615,-0.00305176,
0.062,-0.000305176,
0.0625,0.00274658,
0.063,-0.00198364,
0.0635,-0.00473022,
0.064,-0.00274658,
0.0645,-0.00305176,
0.065,-0.00289917,
0.0655,0.0012207,
0.066,0.00305176,
0.0665,0.00259399,
0.067,0.00198364,
0.0675,0.00137329,
0.068,0.00137329,
0.0685,0.00289917,
0.069,0.00411987,
0.0695,0.00259399,
0.07,-0.0038147,
0.0705,-0.00595093,
0.071,-0.00289917,
0.0715,-0.00183105,
0.072,-0.00106812,
0.0725,0.000305176,
0.073,-0.00137329,
0.0735,-0.00427246,
0.074,-0.00396729,
0.0745,-0.000915527,
0.075,0.000762939,
0.0755,-0.0012207,
0.076,-0.00137329,
0.0765,-0.000915527,
0.077,0.00350952,
0.0775,0.00854492,
0.078,0.0062561,
0.0785,0.000305176,
0.079,-0.00137329,
0.0795,-0.00305176,
0.08,-0.00610352,
0.0805,-0.00488281,
0.081,-0.0050354,
0.0815,-0.00518799,
0.082,-0.00442505,
0.0825,-0.000762939,
0.083,0.00244141,
0.0835,0.000762939,
0.084,-0.00595093,
0.0845,-0.00396729,
0.085,0.00259399,
0.0855,0.00549316,
0.086,0.00213623,
0.0865,-0.00198364,
0.087,-0.00869751,
0.0875,-0.0149536,
0.088,-0.0172424,
0.0885,-0.0135803,
0.089,-0.00823975,
0.0895,-0.00350952,
0.09,0.000152588,
0.0905,-0.00183105,
0.091,-0.00869751,
0.0915,-0.0109863,
0.092,-0.00946045,
0.0925,-0.00564575,
0.093,-0.00396729,
0.0935,-0.00473022,
0.094,-0.000915527,
0.0945,0.00686646,
0.095,0.01297,
0.0955,0.0108337,
0.096,-0.000762939,
0.0965,-0.0108337,
0.097,-0.00762939,
0.0975,-0.00167847,
0.098,-0.000305176,
0.0985,0.000915527,
0.099,0.00289917,
0.0995,0.00259399,
0.1,0.00152588,
0.1005,0.00457764,
0.101,0.00732422,
0.1015,0.00549316,
0.102,0.000152588,
0.1025,-0.00274658,
0.103,-0.00305176,
0.1035,-0.00656128,
0.104,-0.0149536,
0.1045,-0.0178528,
0.105,-0.0135803,
0.1055,-0.00671387,
0.106,-0.00274658,
0.1065,-0.00106812,
0.107,-0.000610352,
0.1075,-0.00213623,
0.108,-0.00137329,
0.1085,-0.00228882,
0.109,-0.00137329,
0.1095,0.00640869,
0.11,0.00991821,
0.1105,0.00656128,
0.111,0.000305176,
0.1115,-0.00701904,
0.112,-0.00976563,
0.1125,-0.00762939,
0.113,0.00152588,
0.1135,0.0152588,
0.114,0.0177002,
0.1145,0.00610352,
0.115,-0.00686646,
0.1155,-0.0161743,
0.116,-0.018158,
0.1165,-0.0109863,
0.117,-0.00228882,
0.1175,0.00534058,
0.118,0.0128174,
0.1185,0.0140381,
0.119,0.00930786,
0.1195,0.0012207,
0.12,-0.00549316,
0.1205,-0.00640869,
0.121,-0.00457764,
0.1215,-0.00518799,
0.122,-0.00244141,
0.1225,0.000610352,
0.123,0.00579834,
0.1235,0.0050354,
0.124,0.000152588,
0.1245,0.000305176,
0.125,0.00137329,
0.1255,0.00167847,
0.126,0.00610352,
0.1265,0.00671387,
0.127,0.00518799,
0.1275,0.00137329,
0.128,-0.000457764,
0.1285,0.000610352,
0.129,0.00289917,
0.1295,0.00350952,
0.13,0.0012207,
0.1305,-0.000610352,
0.131,-0.00106812,
0.1315,0.000457764,
0.132,-0.00167847,
0.1325,-0.00411987,
0.133,-0.00259399,
0.1335,-0.00579834,
0.134,-0.0088501,
0.1345,-0.0102234,
0.135,-0.0120544,
0.1355,-0.00671387,
0.136,0.00289917,
0.1365,0.00183105,
0.137,-0.00320435,
0.1375,-0.00198364,
0.138,0.000305176,
0.1385,-0.000305176,
0.139,-0.0050354,
0.1395,-0.00900269,
0.14,-0.00457764,
0.1405,-0.000610352,
0.141,-0.00289917,
0.1415,-0.00396729,
0.142,-0.00457764,
0.1425,-0.00244141,
0.143,0.00137329,
0.1435,-0.000915527,
0.144,-0.00839233,
0.1445,-0.00564575,
0.145,0.00640869,
0.1455,0.0151062,
0.146,0.0134277,
0.1465,0.00457764,
0.147,-0.00106812,
0.1475,-0.00335693,
0.148,-0.00488281,
0.1485,-0.00839233,
0.149,-0.00717163,
0.1495,-0.00320435,
0.15,0.00167847,
0.1505,0.0038147,
0.151,0.00106812,
0.1515,-0.00289917,
0.152,-0.000762939,
0.1525,0.00350952,
0.153,0.00320435,
0.1535,-0.0012207,
0.154,-0.00305176,
0.1545,-0.00183105,
0.155,0.00183105,
0.1555,-0.00198364,
0.156,-0.00335693,
0.1565,-0.00488281,
0.157,-0.00579834,
0.1575,-0.00686646,
0.158,-0.00366211,
0.1585,0.00320435,
0.159,0.010376,
0.1595,0.0141907,
0.16,0.00671387,
0.1605,-0.00778198,
0.161,-0.0167847,
0.1615,-0.0178528,
0.162,-0.0106812,
0.1625,0.00167847,
0.163,0.00610352,
0.1635,0.00549316,
0.164,0.010376,
0.1645,0.0111389,
0.165,0.00427246,
0.1655,-0.00228882,
0.166,-0.00213623,
0.1665,0.00167847,
0.167,0.00183105,
0.1675,0.000457764,
0.168,-0.000610352,
0.1685,-0.000762939,
0.169,0.00198364,
0.1695,0.000915527,
0.17,-0.00335693,
0.1705,-0.000457764,
0.171,0.00717163,
0.1715,0.0134277,
0.172,0.00946045,
0.1725,-0.00167847,
0.173,-0.00701904,
0.1735,-0.0154114,
0.174,-0.0204468,
0.1745,-0.0123596,
0.175,-0.00137329,
0.1755,0.00137329,
0.176,-0.00106812,
0.1765,0,
0.177,-0.00167847,
0.1775,-0.000152588,
0.178,0.00274658,
0.1785,-0.00106812,
0.179,-0.00427246,
0.1795,-0.00137329,
0.18,0.000762939,
0.1805,0.000305176,
0.181,-0.00167847,
0.1815,-0.00183105,
0.182,-0.00396729,
0.1825,-0.00854492,
0.183,-0.0114441,
0.1835,-0.0126648,
0.184,-0.0112915,
0.1845,-0.00930786,
0.185,-0.00869751,
0.1855,-0.00823975,
0.186,-0.00671387,
0.1865,-0.00595093,
0.187,-0.00396729,
0.1875,-0.00183105,
0.188,-0.00427246,
0.1885,-0.00823975,
0.189,-0.00869751,
0.1895,-0.00686646,
0.19,-0.00579834,
0.1905,-0.00244141,
0.191,0.00335693,
0.1915,0.00411987,
0.192,-0.000457764,
0.1925,-0.00411987,
0.193,-0.00274658,
0.1935,-0.00289917,
0.194,-0.00350952,
0.1945,-0.00305176,
0.195,-0.000762939,
0.1955,0.000762939,
0.196,-0.00411987,
0.1965,-0.00289917,
0.197,0,
0.1975,0.00259399,
0.198,0.00244141,
0.1985,-0.00167847,
0.199,-0.00427246,
0.1995,-0.00259399,
0.2,-0.0012207,
0.2005,-0.00213623,
0.201,-0.00289917,
0.2015,-0.00457764,
0.202,-0.00564575,
0.2025,-0.00473022,
0.203,-0.00213623,
0.2035,-0.000915527,
0.204,-0.00213623,
0.2045,-0.00289917,
0.205,-0.00183105,
0.2055,0.000305176,
0.206,-0.000457764,
0.2065,-0.00350952,
0.207,-0.00350952,
0.2075,-0.000610352,
0.208,-0.000152588,
0.2085,-0.00198364,
0.209,-0.00442505,
0.2095,-0.00839233,
0.21,-0.0102234,
0.2105,-0.0137329,
0.211,-0.0149536,
0.2115,-0.012207,
0.212,-0.00793457,
0.2125,-0.00183105,
0.213,0.000762939,
0.2135,-0.00152588,
0.214,-0.00717163,
0.2145,-0.0100708,
0.215,-0.00595093,
0.2155,-0.00534058,
0.216,-0.00991821,
0.2165,-0.0108337,
0.217,-0.00610352,
0.2175,-0.00289917,
0.218,-0.00991821,
0.2185,-0.0109863,
0.219,-0.00488281,
0.2195,-0.00213623,
0.22,-0.00534058,
0.2205,-0.00747681,
0.221,-0.00549316,
0.2215,-0.00671387,
0.222,-0.00793457,
0.2225,-0.00961304,
0.223,-0.0115967,
0.2235,-0.0114441,
0.224,-0.00640869,
0.2245,-0.00274658,
0.225,-0.00457764,
0.2255,-0.00976563,
0.226,-0.0149536,
0.2265,-0.0115967,
0.227,-0.00610352,
0.2275,-0.00396729,
0.228,-0.0038147,
0.2285,-0.00442505,
0.229,-0.00366211,
0.2295,0.00244141,
0.23,0.0038147,
0.2305,-0.000457764,
0.231,-0.00411987,
0.2315,-0.000610352,
0.232,0.00564575,
0.2325,0.00808716,
0.233,0.00396729,
0.2335,-0.00564575,
0.234,-0.0152588,
0.2345,-0.0212097,
0.235,-0.0192261,
0.2355,-0.0123596,
0.236,-0.00473022,
0.2365,0.000152588,
0.237,-0.00259399,
0.2375,-0.00640869,
0.238,-0.000762939,
0.2385,0.00579834,
0.239,0.00411987,
0.2395,-0.00259399,
0.24,-0.00686646,
0.2405,-0.00854492,
0.241,-0.0154114,
0.2415,-0.0177002,
0.242,-0.0163269,
0.2425,-0.00778198,
0.243,0,
0.2435,-0.00106812,
0.244,-0.000915527,
0.2445,0.00823975,
0.245,0.0178528,
0.2455,0.0119019,
0.246,-0.0012207,
0.2465,-0.00823975,
0.247,-0.00869751,
0.2475,-0.00747681,
0.248,-0.00732422,
0.2485,-0.0062561,
0.249,-0.00640869,
0.2495,-0.00717163,
0.25,-0.0062561,
0.2505,-0.00137329,
0.251,0.00259399,
0.2515,0.00396729,
0.252,0.00534058,
0.2525,0.00732422,
0.253,0.00701904,
0.2535,0.0050354,
0.254,-0.000610352,
0.2545,-0.00701904,
0.255,-0.00534058,
0.2555,0.00213623,
0.256,0.00549316,
0.2565,0.00640869,
0.257,0.00289917,
0.2575,-0.00396729,
0.258,-0.00900269,
0.2585,-0.00839233,
0.259,0.0038147,
0.2595,0.0138855,
0.26,0.010376,
0.2605,0.00167847,
0.261,-0.0050354,
0.2615,0.000305176,
0.262,0.0119019,
0.2625,0.015564,
0.263,0.00579834,
0.2635,-0.00534058,
0.264,-0.0138855,
0.2645,-0.0149536,
0.265,-0.00671387,
0.2655,-0.00350952,
0.266,-0.000152588,
0.2665,-0.00305176,
0.267,0.00137329,
0.2675,0.0119019,
0.268,0.0149536,
0.2685,0.00976563,
0.269,0.00854492,
0.2695,0.00610352,
0.27,0.00595093,
0.2705,0.00869751,
0.271,0.00778198,
0.2715,0.00549316,
0.272,0.0012207,
0.2725,-0.00335693,
0.273,-0.00213623,
0.2735,0.00152588,
0.274,0.000457764,
0.2745,-0.00167847,
0.275,-0.00152588,
0.2755,0.00183105,
0.276,0.00350952,
0.2765,0.00259399,
0.277,0.00442505,
0.2775,0.00457764,
0.278,0.00411987,
0.2785,0.00274658,
0.279,0.00320435,
0.2795,0.000915527,
0.28,-0.00488281,
0.2805,-0.00595093,
0.281,0.000610352,
0.2815,0.00427246,
0.282,0.00350952,
0.2825,-0.0012207,
0.283,-0.0102234,
0.2835,-0.0141907,
0.284,-0.00946045,
0.2845,-0.00335693,
0.285,0.00152588,
0.2855,0.00671387,
0.286,0.0115967,
0.2865,0.01297,
0.287,0.00610352,
0.2875,-0.00305176,
0.288,-0.00289917,
0.2885,0.00473022,
0.289,0.00915527,
0.2895,0.0062561,
0.29,-0.00259399,
0.2905,-0.00549316,
0.291,-0.00152588,
0.2915,0.00228882,
0.292,0.000610352,
0.2925,-0.000610352,
0.293,-0.000762939,
0.2935,-0.000610352,
0.294,0.00335693,
0.2945,0.00305176,
0.295,0.00198364,
0.2955,0.00106812,
0.296,-0.00320435,
0.2965,-0.00808716,
0.297,-0.0102234,
0.2975,-0.00762939,
0.298,-0.00427246,
0.2985,-0.000610352,
0.299,-0.00213623,
0.2995,-0.00305176,
0.3,-0.0062561,
0.3005,-0.00640869,
0.301,-0.00869751,
0.3015,-0.00701904,
0.302,-0.00335693,
0.3025,-0.00411987,
0.303,-0.00534058,
0.3035,-0.00396729,
0.304,-0.000610352,
0.3045,-0.000305176,
0.305,-0.00411987,
0.3055,-0.00854492,
0.306,-0.0120544,
0.3065,-0.0143433,
0.307,-0.0146484,
0.3075,-0.00640869,
0.308,-0.00106812,
0.3085,-0.00473022,
0.309,-0.00701904,
0.3095,-0.00564575,
0.31,-0.00579834,
0.3105,-0.0088501,
0.311,-0.0131226,
0.3115,-0.012207,
0.312,-0.00991821,
0.3125,-0.0117493,
0.313,-0.0164795,
0.3135,-0.0149536,
0.314,-0.00732422,
0.3145,-0.0012207,
0.315,-0.00183105,
0.3155,-0.00427246,
0.316,-0.00396729,
0.3165,-0.000915527,
0.317,-0.000762939,
0.3175,-0.0050354,
0.318,-0.00457764,
0.3185,-0.00335693,
0.319,-0.00473022,
0.3195,-0.00534058,
0.32,-0.00427246,
0.3205,-0.00457764,
0.321,0.000610352,
0.3215,0.00793457,
0.322,0.00579834,
0.3225,-0.00396729,
0.323,-0.00793457,
0.3235,-0.00488281,
0.324,0.00106812,
0.3245,0.00442505,
0.325,-0.00305176,
0.3255,-0.0126648,
0.326,-0.014801,
0.3265,-0.00686646,
0.327,-0.00183105,
0.3275,0.0050354,
0.328,0.0123596,
0.3285,0.0108337,
0.329,0.00701904,
0.3295,0.00289917,
0.33,0.000457764,
0.3305,0.00244141,
0.331,0.00350952,
0.3315,0.0012207,
0.332,-0.000610352,
0.3325,-0.0012207,
0.333,-0.00518799,
0.3335,-0.0062561,
0.334,-0.00579834,
0.3345,-0.00305176,
0.335,-0.0012207,
0.3355,-0.00213623,
0.336,-0.00137329,
0.3365,0.000457764,
0.337,0.00289917,
0.3375,0.000762939,
0.338,-0.00595093,
0.3385,-0.00488281,
0.339,-0.00167847,
0.3395,-0.00869751,
0.34,-0.0230408,
0.3405,-0.025177,
0.341,-0.0202942,
0.3415,-0.0144958,
0.342,0.00137329,
0.3425,0.0276184,
0.343,0.0360107,
0.3435,0.0184631,
0.344,0.000305176,
0.3445,-0.00396729,
0.345,-0.00564575,
0.3455,-0.0119019,
0.346,-0.0126648,
0.3465,-0.00366211,
0.347,0.00320435,
0.3475,0.00244141,
0.348,-0.00717163,
0.3485,-0.0180054,
0.349,-0.0186157,
0.3495,-0.0119019,
0.35,-0.00442505,
0.3505,-0.00137329,
0.351,0.000610352,
0.3515,0.00289917,
0.352,0.00244141,
0.3525,0.00167847,
0.353,0.00305176,
0.3535,0.00534058,
0.354,0.00320435,
0.3545,0.00183105,
0.355,0.00442505,
0.3555,0.00595093,
0.356,0.00183105,
0.3565,0,
0.357,0.00213623,
0.3575,0.00183105,
0.358,0.00152588,
0.3585,0.00137329,
0.359,-0.0012207,
0.3595,-0.00213623,
0.36,0.00137329,
0.3605,0.00671387,
0.361,0.00976563,
0.3615,0.0123596,
0.362,0.0132751,
0.3625,0.0117493,
0.363,0.00549316,
0.3635,0.00213623,
0.364,0.00183105,
0.3645,0.00305176,
0.365,0.00396729,
0.3655,0.00427246,
0.366,0.00564575,
0.3665,0.00579834,
0.367,-0.000915527,
0.3675,-0.00442505,
0.368,-0.00289917,
0.3685,-0.00320435,
0.369,-0.0062561,
0.3695,-0.00732422,
0.37,-0.00686646,
0.3705,-0.00762939,
0.371,-0.00946045,
0.3715,-0.0102234,
0.372,-0.00473022,
0.3725,-0.00335693,
0.373,-0.00549316,
0.3735,-0.010376,
0.374,-0.018158,
0.3745,-0.0187683,
0.375,-0.0120544,
0.3755,-0.0062561,
0.376,-0.00564575,
0.3765,-0.0100708,
0.377,-0.00930786,
0.3775,-0.00701904,
0.378,-0.00411987,
0.3785,-0.00228882,
0.379,-0.00396729,
0.3795,-0.00488281,
0.38,-0.000915527,
0.3805,0.00274658,
0.381,0.0038147,
0.3815,0.00396729,
0.382,-0.000762939,
0.3825,-0.00610352,
0.383,-0.0137329,
0.3835,-0.0167847,
0.384,-0.00839233,
0.3845,0.00411987,
0.385,0.00854492,
0.3855,0.00411987,
0.386,-0.00442505,
0.3865,-0.0146484,
0.387,-0.0157166,
0.3875,-0.00640869,
0.388,0.0038147,
0.3885,0.00640869,
0.389,0.0038147,
0.3895,0.0050354,
0.39,0.00732422,
0.3905,0.00411987,
0.391,0.00244141,
0.3915,0.00152588,
0.392,0.000152588,
0.3925,-0.000915527,
0.393,-0.000915527,
0.3935,0.000610352,
0.394,0.00289917,
0.3945,0.00350952,
0.395,0.00152588,
0.3955,-0.00762939,
0.396,-0.0126648,
0.3965,-0.00564575,
0.397,0.00518799,
0.3975,0.00686646,
0.398,0.000457764,
0.3985,-0.00686646,
0.399,-0.00823975,
0.3995,-0.00228882,
0.4,-0.000915527,
0.4005,-0.00228882,
0.401,-0.00442505,
0.4015,-0.00213623,
0.402,0.00137329,
0.4025,-0.000457764,
0.403,-0.00106812,
0.4035,0.000457764,
0.404,0.0012207,
0.4045,0.000457764,
0.405,0.00518799,
0.4055,0.00518799,
0.406,0.0012207,
0.4065,-0.00350952,
0.407,-0.00854492,
0.4075,-0.0117493,
0.408,-0.0143433,
0.4085,-0.0154114,
0.409,-0.0166321,
0.4095,-0.0128174,
0.41,-0.00366211,
0.4105,0.00183105,
0.411,0.00335693,
0.4115,-0.00244141,
0.412,-0.0108337,
0.4125,-0.01297,
0.413,-0.0105286,
0.4135,-0.0114441,
0.414,-0.0143433,
0.4145,-0.0149536,
0.415,-0.00946045,
0.4155,-0.00473022,
0.416,-0.00228882,
0.4165,-0.000915527,
0.417,0.000305176,
0.4175,-0.0050354,
0.418,-0.0163269,
0.4185,-0.0201416,
0.419,-0.0175476,
0.4195,-0.0140381,
0.42,-0.00900269,
0.4205,-0.00793457,
0.421,-0.00640869,
0.4215,-0.00427246,
0.422,-0.000762939,
0.4225,-0.00183105,
0.423,-0.00457764,
0.4235,-0.00366211,
0.424,0.00305176,
0.4245,0.00991821,
0.425,0.0115967,
0.4255,0.00717163,
0.426,0.00457764,
0.4265,0.00442505,
0.427,0.00686646,
0.4275,0.00656128,
0.428,0.00350952,
0.4285,0.000457764,
0.429,0.000915527,
0.4295,-0.000152588,
0.43,-0.000610352,
0.4305,0.00198364,
0.431,0.00335693,
0.4315,0.00244141,
0.432,-0.000762939,
0.4325,-0.000152588,
0.433,-0.000610352,
0.4335,-0.00534058,
0.434,-0.00595093,
0.4345,-0.00106812,
0.435,0.00411987,
0.4355,0.00534058,
0.436,-0.00427246,
0.4365,-0.0100708,
0.437,-0.00518799,
0.4375,0.000915527,
0.438,0.00213623,
0.4385,0.00534058,
0.439,0.012207,
0.4395,0.014801,
0.44,0.00640869,
0.4405,-0.00930786,
0.441,-0.0219727,
0.4415,-0.0160217,
0.442,-0.00289917,
0.4425,0.00106812,
0.443,-0.00289917,
0.4435,-0.00595093,
0.444,-0.00167847,
0.4445,0.00244141,
0.445,0.0038147,
0.4455,0.00564575,
0.446,0.00762939,
0.4465,0.00823975,
0.447,0.00411987,
0.4475,0.000457764,
0.448,-0.00198364,
0.4485,-0.000305176,
0.449,-0.000457764,
0.4495,-0.00366211,
0.45,-0.00350952,
0.4505,-0.0038147,
0.451,-0.0062561,
0.4515,-0.00778198,
0.452,-0.00839233,
0.4525,-0.0111389,
0.453,-0.00915527,
0.4535,-0.00320435,
0.454,0.00457764,
0.4545,0.00305176,
0.455,-0.00366211,
0.4555,-0.00549316,
0.456,0.000762939,
0.4565,0.0132751,
0.457,0.0106812,
0.4575,-0.0135803,
0.458,-0.0349426,
0.4585,-0.0334167,
0.459,-0.0161743,
0.4595,-0.0050354,
0.46,-0.00442505,
0.4605,-0.00930786,
0.461,-0.0228882,
0.4615,-0.0357056,
0.462,-0.0308228,
0.4625,-0.0108337,
0.463,-0.00579834,
0.4635,-0.00900269,
0.464,-0.0012207,
0.4645,0.00991821,
0.465,0.0123596,
0.4655,0.0151062,
0.466,0.0236511,
0.4665,0.0334167,
0.467,0.0378418,
0.4675,0.0276184,
0.468,0.0154114,
0.4685,0.0088501,
0.469,0.015564,
0.4695,0.022583,
0.47,0.0198364,
0.4705,0.0187683,
0.471,0.0210571,
0.4715,0.0167847,
0.472,0.00686646,
0.4725,0.00137329,
0.473,0.00244141,
0.4735,0.00350952,
0.474,0.00396729,
0.4745,0.00289917,
0.475,0.00457764,
0.4755,0.000762939,
0.476,-0.0100708,
0.4765,-0.0201416,
0.477,-0.0213623,
0.4775,-0.0205994,
0.478,-0.0170898,
0.4785,-0.0131226,
0.479,-0.0112915,
0.4795,-0.0088501,
0.48,-0.00198364,
0.4805,0.00183105,
0.481,-0.00564575,
0.4815,-0.0138855,
0.482,-0.01297,
0.4825,-0.0111389,
0.483,-0.0088501,
0.4835,-0.00686646,
0.484,-0.00717163,
0.4845,-0.00518799,
0.485,-0.00564575,
0.4855,-0.00732422,
0.486,-0.00869751,
0.4865,-0.0192261,
0.487,-0.0323486,
0.4875,-0.025177,
0.488,-0.00198364,
0.4885,0.0109863,
0.489,0.00320435,
0.4895,-0.0108337,
0.49,-0.0164795,
0.4905,-0.0126648,
0.491,-0.0144958,
0.4915,-0.0105286,
0.492,0.000457764,
0.4925,0.0117493,
0.493,0.0216675,
0.4935,0.0317383,
0.494,0.0378418,
0.4945,0.0363159,
0.495,0.0215149,
0.4955,0.00366211,
0.496,-0.00106812,
0.4965,-0.00106812,
0.497,0.00244141,
0.4975,0.0108337,
0.498,0.0105286,
0.4985,0.00152588,
0.499,-0.00717163,
0.4995,-0.0117493,
0.5,-0.0164795,
0.5005,-0.0231934,
0.501,-0.0172424,
0.5015,0.0131226,
0.502,0.0361633,
0.5025,0.0219727,
0.503,-0.00671387,
0.5035,-0.0163269,
0.504,-0.00900269,
0.5045,-0.00473022,
0.505,-0.00427246,
0.5055,0.000610352,
0.506,0.00289917,
0.5065,0.000610352,
0.507,-0.00350952,
0.5075,-0.0038147,
0.508,-0.00671387,
0.5085,-0.0109863,
0.509,-0.0115967,
0.5095,-0.014801,
0.51,-0.0126648,
0.5105,-0.00701904,
0.511,-0.00564575,
0.5115,-0.00717163,
0.512,-0.00946045,
0.5125,-0.0131226,
0.513,-0.0102234,
0.5135,-0.00411987,
0.514,-0.000305176,
0.5145,-0.00289917,
0.515,-0.018158,
0.5155,-0.0280762,
0.516,-0.0224304,
0.5165,-0.0166321,
0.517,-0.0192261,
0.5175,-0.0186157,
0.518,-0.012207,
0.5185,-0.00701904,
0.519,0,
0.5195,0.00335693,
0.52,0.00427246,
0.5205,0.00396729,
0.521,0.00396729,
0.5215,0.00396729,
0.522,0.00396729,
0.5225,0.00396729,
0.523,0.00427246,
0.5235,0.00366211,
0.524,0.00396729,
0.5245,0.0038147,
0.525,0.0038147,
0.5255,0.00396729,
0.526,0.00411987,
0.5265,0.00396729,
0.527,0.00289917,
0.5275,-0.0138855,
0.528,-0.0180054,
0.5285,-0.0137329,
0.529,-0.00793457,
0.5295,-0.0062561,
0.53,-0.00228882,
0.5305,0.00137329,
0.531,-0.00289917,
0.5315,-0.00823975,
0.532,-0.0100708,
0.5325,-0.00701904,
0.533,0.00244141,
0.5335,0.0126648,
0.534,0.0125122,
0.5345,-0.00320435,
0.535,-0.00808716,
0.5355,0.0111389,
0.536,0.0285339,
0.5365,0.0317383,
0.537,0.0323486,
0.5375,0.0283813,
0.538,0.0267029,
0.5385,0.0289917,
0.539,0.0283813,
0.5395,0.0204468,
0.54,0.00946045,
0.5405,-0.00274658,
0.541,-0.00732422,
0.5415,-0.00701904,
0.542,-0.00900269,
0.5425,-0.0088501,
0.543,-0.0119019,
0.5435,-0.0216675,
0.544,-0.0241089,
0.5445,-0.0128174,
0.545,0.000305176,
0.5455,0.00671387,
0.546,0.00198364,
0.5465,-0.00610352,
0.547,-0.00823975,
0.5475,-0.00854492,
0.548,-0.0143433,
0.5485,-0.0137329,
0.549,-0.00839233,
0.5495,-0.0038147,
0.55,-0.00640869,
0.5505,-0.0137329,
0.551,-0.0186157,
0.5515,-0.0183105,
0.552,-0.0134277,
0.5525,-0.0112915,
0.553,-0.0112915,
0.5535,-0.00167847,
0.554,0.00991821,
0.5545,0.00701904,
0.555,-0.00289917,
0.5555,-0.00701904,
0.556,-0.00778198,
0.5565,-0.00488281,
0.557,0.00106812,
0.5575,0.00320435,
0.558,0.0012207,
0.5585,0.00198364,
0.559,0.00198364,
0.5595,-0.00457764,
0.56,-0.0100708,
0.5605,-0.00640869,
0.561,-0.00320435,
0.5615,-0.010376,
0.562,-0.0187683,
0.5625,-0.0125122,
0.563,0.0012207,
0.5635,0.00488281,
0.564,-0.0062561,
0.5645,-0.0160217,
0.565,-0.0166321,
0.5655,-0.0112915,
0.566,-0.00549316,
0.5665,0.00442505,
0.567,0.0132751,
0.5675,0.00991821,
0.568,0.00137329,
0.5685,0.00259399,
0.569,0.00900269,
0.5695,0.00701904,
0.57,-0.00854492,
0.5705,-0.0175476,
0.571,-0.00320435,
0.5715,0.0190735,
0.572,0.0270081,
0.5725,0.0241089,
0.573,0.0222778,
0.5735,0.0274658,
0.574,0.0328064,
0.5745,0.0334167,
0.575,0.0254822,
0.5755,0.0138855,
0.576,-0.00137329,
0.5765,-0.0141907,
0.577,-0.0161743,
0.5775,-0.0111389,
0.578,-0.00427246,
0.5785,-0.00152588,
0.579,-0.00396729,
0.5795,-0.00579834,
0.58,-0.0140381,
0.5805,-0.0241089,
0.581,-0.0195313,
0.5815,-0.00610352,
0.582,-0.00213623,
0.5825,-0.00854492,
0.583,-0.0143433,
0.5835,-0.00823975,
0.584,-0.00183105,
0.5845,-0.00198364,
0.585,-0.00808716,
0.5855,-0.0149536,
0.586,-0.0195313,
0.5865,-0.0256348,
0.587,-0.0364685,
0.5875,-0.0413513,
0.588,-0.0375366,
0.5885,-0.0311279,
0.589,-0.0282288,
0.5895,-0.0247192,
0.59,-0.0180054,
0.5905,-0.0111389,
0.591,-0.00396729,
0.5915,-0.00305176,
0.592,-0.00823975,
0.5925,-0.0169373,
0.593,-0.0120544,
0.5935,0.0012207,
0.594,0.00442505,
0.5945,-0.00106812,
0.595,-0.0134277,
0.5955,-0.0210571,
0.596,-0.0131226,
0.5965,0.00747681,
0.597,0.0201416,
0.5975,0.0115967,
0.598,0.00427246,
0.5985,0.00473022,
0.599,0.00427246,
0.5995,-0.00289917,
0.6,-0.0161743,
0.6005,-0.0283813,
0.601,-0.0404358,
0.6015,-0.0608826,
0.602,-0.0775146,
0.6025,-0.0852966,
0.603,-0.0990295,
0.6035,-0.115509,
0.604,-0.121918,
0.6045,-0.105743,
0.605,-0.0772095,
0.6055,-0.0424194,
0.606,0.015564,
0.6065,0.0546265,
0.607,0.0506592,
0.6075,0.0521851,
0.608,0.0579834,
0.6085,0.0309753,
0.609,-0.0222778,
0.6095,-0.0569153,
0.61,-0.0558472,
0.6105,-0.0764465,
0.611,-0.184021,
0.6115,-0.263367,
0.612,-0.249939,
0.6125,-0.209656,
0.613,-0.177002,
0.6135,-0.132904,
0.614,-0.0743103,
0.6145,0.0012207,
0.615,0.154114,
0.6155,0.358429,
0.616,0.431213,
0.6165,0.328979,
0.617,0.220337,
0.6175,0.187073,
0.618,0.176697,
0.6185,0.167542,
0.619,0.164337,
0.6195,0.149536,
0.62,0.10376,
0.6205,0.0538635,
0.621,0.0308228,
0.6215,0.00915527,
0.622,-0.0506592,
0.6225,-0.117798,
0.623,-0.144043,
0.6235,-0.132446,
0.624,-0.101013,
0.6245,-0.063324,
0.625,-0.0193787,
0.6255,0.0291443,
0.626,0.0935364,
0.6265,0.151825,
0.627,0.140991,
0.6275,0.0904846,
0.628,0.0724792,
0.6285,0.098877,
0.629,0.112457,
0.6295,0.0842285,
0.63,0.020752,
0.6305,-0.0440979,
0.631,-0.0914001,
0.6315,-0.112,
0.632,-0.130005,
0.6325,-0.152435,
0.633,-0.167542,
0.6335,-0.1651,
0.634,-0.13092,
0.6345,-0.0778198,
0.635,-0.0334167,
0.6355,-0.000762939,
0.636,0.0502014,
0.6365,0.142365,
0.637,0.250702,
0.6375,0.283508,
0.638,0.250854,
0.6385,0.206451,
0.639,0.171356,
0.6395,0.160522,
0.64,0.151215,
0.6405,0.11795,
0.641,0.0627136,
0.6415,-0.0268555,
0.642,-0.182953,
0.6425,-0.313263,
0.643,-0.359955,
0.6435,-0.379486,
0.644,-0.414124,
0.6445,-0.395966,
0.645,-0.294647,
0.6455,-0.115051,
0.646,0.0918579,
0.6465,0.196991,
0.647,0.150146,
0.6475,0.0527954,
0.648,0.0242615,
0.6485,0.0215149,
0.649,-0.0241089,
0.6495,-0.0708008,
0.65,-0.0744629,
0.6505,-0.0679016,
0.651,-0.059967,
0.6515,-0.0260925,
0.652,0.0132751,
0.6525,0.045929,
0.653,0.0617981,
0.6535,0.0466919,
0.654,0.0473022,
0.6545,0.0970459,
0.655,0.131378,
0.6555,0.132751,
0.656,0.143738,
0.6565,0.164795,
0.657,0.159302,
0.6575,0.10849,
0.658,0.0636292,
0.6585,0.0939941,
0.659,0.135803,
0.6595,0.0820923,
0.66,-0.0234985,
0.6605,-0.106049,
0.661,-0.137634,
0.6615,-0.123291,
0.662,-0.119781,
0.6625,-0.120087,
0.663,-0.120544,
0.6635,-0.121002,
0.664,-0.110474,
0.6645,0.015564,
0.665,0.0865173,
0.6655,0.112762,
0.666,0.108337,
0.6665,0.0704956,
0.667,0.0222778,
0.6675,-0.0114441,
0.668,-0.0338745,
0.6685,-0.0285339,
0.669,-0.00854492,
0.6695,0.0338745,
0.67,0.0416565,
0.6705,-0.132751,
0.671,-0.503693,
0.6715,-0.830994,
0.672,-0.997009,
0.6725,-1.08215,
0.673,-1.08627,
0.6735,-0.945282,
0.674,-0.650024,
0.6745,-0.171661,
0.675,0.349121,
0.6755,0.513153,
0.676,0.206757,
0.6765,-0.252686,
0.677,-0.556488,
0.6775,-0.576782,
0.678,-0.461121,
0.6785,-0.315857,
0.679,-0.130768,
0.6795,0.0738525,
0.68,0.223236,
0.6805,0.331268,
0.681,0.545349,
0.6815,0.832825,
0.682,0.904388,
0.6825,0.667114,
0.683,0.397339,
0.6835,0.297852,
0.684,0.236359,
0.6845,0.142059,
0.685,0.0790405,
0.6855,-0.0315857,
0.686,-0.106354,
0.6865,0.0164795,
0.687,0.245972,
0.6875,0.385437,
0.688,0.394592,
0.6885,0.377655,
0.689,0.407867,
0.6895,0.444489,
0.69,0.426788,
0.6905,0.385132,
0.691,0.381012,
0.6915,0.395966,
0.692,0.42923,
0.6925,0.474396,
0.693,0.435944,
0.6935,0.310974,
0.694,0.224152,
0.6945,0.171661,
0.695,0.142822,
0.6955,0.184326,
0.696,0.245209,
0.6965,0.19516,
0.697,-0.00595093,
0.6975,-0.198822,
0.698,-0.328369,
0.6985,-0.477753,
0.699,-0.620728,
0.6995,-0.679016,
0.7,-0.627747,
0.7005,-0.494537,
0.701,-0.287323,
0.7015,-0.0390625,
0.702,0.0947571,
0.7025,0.0827026,
0.703,0.0502014,
0.7035,0.0267029,
0.704,-0.0544739,
0.7045,-0.167694,
0.705,-0.278015,
0.7055,-0.36972,
0.706,-0.423126,
0.7065,-0.466919,
0.707,-0.411072,
0.7075,-0.155182,
0.708,0.120392,
0.7085,0.161896,
0.709,-0.00289917,
0.7095,-0.22934,
0.71,-0.472717,
0.7105,-0.660706,
0.711,-0.689545,
0.7115,-0.597687,
0.712,-0.545959,
0.7125,-0.547333,
0.713,-0.523224,
0.7135,-0.372925,
0.714,-0.0386047,
0.7145,0.376892,
0.715,0.636292,
0.7155,0.65567,
0.716,0.561523,
0.7165,0.514526,
0.717,0.554504,
0.7175,0.550537,
0.718,0.419159,
0.7185,0.203247,
0.719,0.0465393,
0.7195,0.00823975,
0.72,0.0614929,
0.7205,0.162201,
0.721,0.211029,
0.7215,0.19043,
0.722,0.156708,
0.7225,0.136871,
0.723,0.123749,
0.7235,0.13916,
0.724,0.223846,
0.7245,0.297089,
0.725,0.258789,
0.7255,0.134583,
0.726,0.0390625,
0.7265,0.00717163,
0.727,-0.0540161,
0.7275,-0.177765,
0.728,-0.310669,
0.7285,-0.418091,
0.729,-0.502319,
0.7295,-0.559692,
0.73,-0.494995,
0.7305,-0.252533,
0.731,0.00839233,
0.7315,0.142059,
0.732,0.140381,
0.7325,0.11734,
0.733,0.135956,
0.7335,0.187683,
0.734,0.238037,
0.7345,0.245819,
0.735,0.186462,
0.7355,0.0526428,
0.736,-0.0730896,
0.7365,-0.139465,
0.737,-0.137024,
0.7375,-0.16098,
0.738,-0.209808,
0.7385,-0.241547,
0.739,-0.255127,
0.7395,-0.223846,
0.74,-0.111389,
0.7405,0.032196,
0.741,0.153656,
0.7415,0.184937,
0.742,0.118408,
0.7425,0.109863,
0.743,0.168915,
0.7435,0.141602,
0.744,0.00534058,
0.7445,-0.0720215,
0.745,0.00213623,
0.7455,0.0741577,
0.746,0.0445557,
0.7465,-0.00198364,
0.747,-0.0012207,
0.7475,-0.00717163,
0.748,-0.0634766,
0.7485,-0.114288,
0.749,-0.0801086,
0.7495,0.00701904,
0.75,0.0320435,
0.7505,-0.0386047,
0.751,-0.119934,
0.7515,-0.146484,
0.752,-0.132446,
0.7525,-0.130615,
0.753,-0.15564,
0.7535,-0.186157,
0.754,-0.198517,
0.7545,-0.179749,
0.755,-0.158844,
0.7555,-0.140381,
0.756,-0.0621033,
0.7565,0.0834656,
0.757,0.158081,
0.7575,0.126648,
0.758,0.0892639,
0.7585,0.100861,
0.759,0.0732422,
0.7595,-0.0253296,
0.76,-0.116882,
0.7605,-0.13504,
0.761,-0.102844,
0.7615,-0.0799561,
0.762,-0.0914001,
0.7625,-0.0912476,
0.763,-0.0662231,
0.7635,-0.0369263,
0.764,-0.00350952,
0.7645,0.0256348,
0.765,0.0448608,
0.7655,0.0679016,
0.766,0.10376,
0.7665,0.13443,
0.767,0.120697,
0.7675,0.035553,
0.768,-0.0604248,
0.7685,-0.0827026,
0.769,-0.0283813,
0.7695,0.00106812,
0.77,0.00823975,
0.7705,0.00900269,
0.771,0.00900269,
0.7715,0.0112915,
0.772,0.0421143,
0.7725,0.0593567,
0.773,0.057373,
0.7735,0.0454712,
0.774,0.00213623,
0.7745,-0.052948,
0.775,-0.107269,
0.7755,-0.194702,
0.776,-0.288391,
0.7765,-0.325928,
0.777,-0.283813,
0.7775,-0.236511,
0.778,-0.227356,
0.7785,-0.215454,
0.779,-0.14679,
0.7795,-0.0306702,
0.78,0.102539,
0.7805,0.210266,
0.781,0.254669,
0.7815,0.23056,
0.782,0.186768,
0.7825,0.117798,
0.783,0.0320435,
0.7835,-0.0476074,
0.784,-0.103912,
0.7845,-0.13504,
0.785,-0.145721,
0.7855,-0.114288,
0.786,-0.0428772,
0.7865,0.0561523,
0.787,0.131226,
0.7875,0.123138,
0.788,0.0819397,
0.7885,0.068512,
0.789,0.0704956,
0.7895,0.0453186,
0.79,0.012207,
0.7905,0.0276184,
0.791,0.0862122,
0.7915,0.110016,
0.792,0.0598145,
0.7925,-0.00335693,
0.793,-0.0238037,
0.7935,0.00915527,
0.794,0.0474548,
0.7945,0.0518799,
0.795,0.071106,
0.7955,0.116577,
0.796,0.112152,
0.7965,0.0524902,
0.797,-0.000610352,
0.7975,-0.0254822,
0.798,-0.012207,
0.7985,0.0588989,
0.799,0.121307,
0.7995,0.115356,
0.8,0.0990295,
0.8005,0.171356,
0.801,0.283966,
0.8015,0.284424,
0.802,0.121613,
0.8025,-0.0494385,
0.803,-0.13916,
0.8035,-0.156555,
0.804,-0.13031,
0.8045,-0.0779724,
0.805,-0.01297,
0.8055,0.0517273,
0.806,0.0949097,
0.8065,0.0776672,
0.807,0.0614929,
0.8075,0.117798,
0.808,0.169678,
0.8085,0.166016,
0.809,0.132294,
0.8095,0.107422,
0.81,0.129852,
0.8105,0.167389,
0.811,0.176392,
0.8115,0.101013,
0.812,-0.0358582,
0.8125,-0.145721,
0.813,-0.154266,
0.8135,-0.0979614,
0.814,-0.0679016,
0.8145,-0.0636292,
0.815,-0.0712585,
0.8155,-0.0907898,
0.816,-0.123291,
0.8165,-0.124207,
0.817,-0.102539,
0.8175,-0.110474,
0.818,-0.12558,
0.8185,-0.0970459,
0.819,-0.0317383,
0.8195,0.0823975,
0.82,0.209656,
0.8205,0.271149,
0.821,0.21759,
0.8215,0.0668335,
0.822,-0.0794983,
0.8225,-0.210266,
0.823,-0.324402,
0.8235,-0.377808,
0.824,-0.3125,
0.8245,-0.0706482,
0.825,0.262909,
0.8255,0.412598,
0.826,0.341644,
0.8265,0.258942,
0.827,0.241852,
0.8275,0.256195,
0.828,0.272369,
0.8285,0.300751,
0.829,0.30899,
0.8295,0.26474,
0.83,0.157318,
0.8305,0.0465393,
0.831,-0.00183105,
0.8315,-0.0230408,
0.832,-0.0271606,
0.8325,-0.0195313,
0.833,-0.0405884,
0.8335,-0.0816345,
0.834,-0.106964,
0.8345,-0.108643,
0.835,-0.0894165,
0.8355,-0.12558,
0.836,-0.228271,
0.8365,-0.283966,
0.837,-0.253601,
0.8375,-0.205688,
0.838,-0.164948,
0.8385,-0.124817,
0.839,-0.0616455,
0.8395,0.0688171,
0.84,0.188751,
0.8405,0.230865,
0.841,0.245819,
0.8415,0.211639,
0.842,0.0904846,
0.8425,-0.0669861,
0.843,-0.188293,
0.8435,-0.222778,
0.844,-0.202789,
0.8445,-0.159912,
0.845,-0.0900269,
0.8455,-0.0386047,
0.846,-0.0375366,
0.8465,-0.050354,
0.847,-0.0382996,
0.8475,-0.0318909,
0.848,-0.030365,
0.8485,0.00991821,
0.849,0.0288391,
0.8495,-0.0213623,
0.85,-0.0852966,
0.8505,-0.0927734,
0.851,0.0259399,
0.8515,0.200043,
0.852,0.261841,
0.8525,0.138245,
0.853,-0.0505066,
0.8535,-0.155945,
0.854,-0.14267,
0.8545,-0.0810242,
0.855,-0.0592041,
0.8555,-0.0730896,
0.856,-0.0927734,
0.8565,-0.114136,
0.857,-0.114594,
0.8575,-0.0816345,
0.858,-0.0454712,
0.8585,-0.000610352,
0.859,0.0480652,
0.8595,0.0474548,
0.86,-0.00793457,
0.8605,-0.0247192,
0.861,0,
0.8615,0.00640869,
0.862,-0.0378418,
0.8625,-0.0849915,
0.863,-0.0917053,
0.8635,-0.0836182,
0.864,-0.107269,
0.8645,-0.132446,
0.865,-0.0920105,
0.8655,-0.0267029,
0.866,-0.00915527,
0.8665,-0.0382996,
0.867,-0.0549316,
0.8675,-0.0592041,
0.868,-0.0598145,
0.8685,-0.0598145,
0.869,-0.0650024,
0.8695,-0.131073,
0.87,-0.166016,
0.8705,-0.177155,
0.871,-0.144653,
0.8715,-0.0778198,
0.872,-0.0735474,
0.8725,-0.111389,
0.873,-0.0923157,
0.8735,-0.0382996,
0.874,0.0141907,
0.8745,0.0761414,
0.875,0.153656,
0.8755,0.199127,
0.876,0.17746,
0.8765,0.115814,
0.877,0.098877,
0.8775,0.121307,
0.878,0.149536,
0.8785,0.172119,
0.879,0.194397,
0.8795,0.216522,
0.88,0.208893,
0.8805,0.145569,
0.881,0.0787354,
0.8815,0.0912476,
0.882,0.181274,
0.8825,0.266571,
0.883,0.297089,
0.8835,0.222626,
0.884,0.0382996,
0.8845,-0.125427,
0.885,-0.137787,
0.8855,-0.0868225,
0.886,-0.0866699,
0.8865,-0.0979614,
0.887,-0.0854492,
0.8875,-0.088501,
0.888,-0.121155,
0.8885,-0.132294,
0.889,-0.090332,
0.8895,-0.0646973,
0.89,-0.0514221,
0.8905,-0.0210571,
0.891,0.0117493,
0.8915,0.0372314,
0.892,0.0296021,
0.8925,-0.00595093,
0.893,-0.0305176,
0.8935,-0.0189209,
0.894,0,
0.8945,0.0114441,
0.895,-0.0115967,
0.8955,-0.0546265,
0.896,-0.100861,
0.8965,-0.157623,
0.897,-0.196686,
0.8975,-0.181427,
0.898,-0.168915,
0.8985,-0.157471,
0.899,-0.0297546,
0.8995,0.144348,
0.9,0.197449,
0.9005,0.138855,
0.901,0.0909424,
0.9015,0.116272,
0.902,0.193024,
0.9025,0.254364,
0.903,0.2565,
0.9035,0.187836,
0.904,0.12558,
0.9045,0.148926,
0.905,0.111389,
0.9055,-0.0624084,
0.906,-0.19455,
0.9065,-0.194397,
0.907,-0.128479,
0.9075,-0.0750732,
0.908,-0.0462341,
0.9085,-0.0428772,
0.909,-0.0854492,
0.9095,-0.121765,
0.91,-0.0961304,
0.9105,-0.0662231,
0.911,-0.0415039,
0.9115,-0.0128174,
0.912,-0.000457764,
0.9125,-0.0341797,
0.913,-0.130768,
0.9135,-0.192261,
0.914,-0.116882,
0.9145,0.0245667,
0.915,0.114288,
0.9155,0.115814,
0.916,0.0614929,
0.9165,0.0398254,
0.917,0.092926,
0.9175,0.155792,
0.918,0.170288,
0.9185,0.0871277,
0.919,-0.0163269,
0.9195,-0.0547791,
0.92,0.000610352,
0.9205,0.0971985,
0.921,0.124359,
0.9215,0.0601196,
0.922,0.0175476,
0.9225,0.0325012,
0.923,0.0349426,
0.9235,0.00991821,
0.924,0.00808716,
0.9245,0.0151062,
0.925,-0.0146484,
0.9255,-0.0512695,
0.926,-0.0469971,
0.9265,-0.00137329,
0.927,0.0436401,
0.9275,0.0778198,
0.928,0.119629,
0.9285,0.160828,
0.929,0.162048,
0.9295,0.124817,
0.93,0.0814819,
0.9305,0.0479126,
0.931,0.0408936,
0.9315,0.0546265,
0.932,0.0543213,
0.9325,0.0215149,
0.933,-0.0189209,
0.9335,-0.0462341,
0.934,-0.0712585,
0.9345,-0.0785828,
0.935,-0.055542,
0.9355,-0.018158,
0.936,0.014801,
0.9365,0.0354004,
0.937,0.0480652,
0.9375,0.0587463,
0.938,0.0495911,
0.9385,0.0186157,
0.939,0.00946045,
0.9395,0.0120544,
0.94,-0.0231934,
0.9405,-0.0946045,
0.941,-0.159607,
0.9415,-0.182037,
0.942,-0.172272,
0.9425,-0.170288,
0.943,-0.16571,
0.9435,-0.146027,
0.944,-0.110931,
0.9445,-0.0556946,
0.945,-0.0180054,
0.9455,-0.00518799,
0.946,0.000762939,
0.9465,0.0151062,
0.947,0.0619507,
0.9475,0.106354,
0.948,0.0881958,
0.9485,0.0100708,
0.949,-0.0575256,
0.9495,-0.0805664,
0.95,-0.0927734,
0.9505,-0.126038,
0.951,-0.125275,
0.9515,-0.0502014,
0.952,0.0363159,
0.9525,0.0619507,
0.953,0.0541687,
0.9535,0.0674438,
0.954,0.0912476,
0.9545,0.080719,
0.955,0.0480652,
0.9555,0.0239563,
0.956,0.0205994,
0.9565,0.00793457,
0.957,-0.0346375,
0.9575,-0.098877,
0.958,-0.163574,
0.9585,-0.211487,
0.959,-0.231628,
0.9595,-0.208893,
0.96,-0.176239,
0.9605,-0.155029,
0.961,-0.0856018,
0.9615,0.0759888,
0.962,0.25116,
0.9625,0.306549,
0.963,0.185699,
0.9635,0.030365,
0.964,-0.0244141,
0.9645,0.0102234,
0.965,0.0798035,
0.9655,0.102081,
0.966,0.0646973,
0.9665,0.0228882,
0.967,-0.0152588,
0.9675,-0.0309753,
0.968,-0.0154114,
0.9685,-0.00442505,
0.969,-0.0224304,
0.9695,-0.0582886,
0.97,-0.0849915,
0.9705,-0.0723267,
0.971,-0.0297546,
0.9715,-0.027771,
0.972,-0.10376,
0.9725,-0.180206,
0.973,-0.202942,
0.9735,-0.179443,
0.974,-0.154114,
0.9745,-0.144806,
0.975,-0.14267,
0.9755,-0.14267,
0.976,-0.14267,
0.9765,-0.142975,
0.977,-0.142822,
0.9775,-0.141602,
0.978,-0.124512,
0.9785,-0.0772095,
0.979,-0.0132751,
0.9795,0.0598145,
0.98,0.158386,
0.9805,0.228577,
0.981,0.241394,
0.9815,0.217438,
0.982,0.196075,
0.9825,0.173187,
0.983,0.153656,
0.9835,0.158691,
0.984,0.145569,
0.9845,0.0949097,
0.985,0.0331116,
0.9855,-0.0228882,
0.986,-0.0531006,
0.9865,-0.0390625,
0.987,-0.0595093,
0.9875,-0.0917053,
0.988,-0.088501,
0.9885,-0.0883484,
0.989,-0.0930786,
0.9895,-0.0737,
0.99,-0.0331116,
0.9905,0.0088501,
0.991,0.0241089,
0.9915,-0.00396729,
0.992,-0.0485229,
0.9925,-0.0640869,
0.993,-0.0370789,
0.9935,0.014801,
0.994,0.0509644,
0.9945,0.0482178,
0.995,0.0311279,
0.9955,0.0398254,
0.996,0.0463867,
0.9965,-0.0187683,
0.997,-0.0950623,
0.9975,-0.11322,
0.998,-0.0819397,
0.9985,-0.0352478,
0.999,0.00274658,
0.9995,0.0175476,
1,0.0393677,
1.0005,0.0938416,
1.001,0.135193,
1.0015,0.105133,
1.002,0.0588989,
1.0025,0.0608826,
1.003,0.0556946,
1.0035,0.00137329,
1.004,-0.0447083,
1.0045,-0.0778198,
1.005,-0.115356,
1.0055,-0.137329,
1.006,-0.127106,
1.0065,-0.108795,
1.007,-0.103912,
1.0075,-0.0848389,
1.008,-0.0308228,
1.0085,0.00869751,
1.009,0.0120544,
1.0095,0.014801,
1.01,0.0430298,
1.0105,0.0856018,
1.011,0.113983,
1.0115,0.152283,
1.012,0.183563,
1.0125,0.15976,
1.013,0.0982666,
1.0135,0.040741,
1.014,-0.00488281,
1.0145,-0.058136,
1.015,-0.109863,
1.0155,-0.176392,
1.016,-0.23819,
1.0165,-0.235138,
1.017,-0.224915,
1.0175,-0.255127,
1.018,-0.244141,
1.0185,-0.153198,
1.019,-0.0497437,
1.0195,-0.00366211,
1.02,-0.0172424,
1.0205,-0.0662231,
1.021,-0.130768,
1.0215,-0.186462,
1.022,-0.204315,
1.0225,-0.171509,
1.023,-0.0950623,
1.0235,0.0151062,
1.024,0.132904,
1.0245,0.215454,
1.025,0.214233,
1.0255,0.172577,
1.026,0.170288,
1.0265,0.193024,
1.027,0.224304,
1.0275,0.250397,
1.028,0.233307,
1.0285,0.178833,
1.029,0.134277,
1.0295,0.150757,
1.03,0.192871,
1.0305,0.166016,
1.031,0.0814819,
1.0315,0.0457764,
1.032,0.093689,
1.0325,0.150909,
1.033,0.179138,
1.0335,0.186768,
1.034,0.155792,
1.0345,0.0970459,
1.035,0.0552368,
1.0355,0.0271606,
1.036,-0.000915527,
1.0365,-0.00900269,
1.037,-0.00244141,
1.0375,-0.010376,
1.038,-0.0386047,
1.0385,-0.0602722,
1.039,-0.0653076,
1.0395,-0.0735474,
1.04,-0.108948,
1.0405,-0.160522,
1.041,-0.183716,
1.0415,-0.15274,
1.042,-0.0941467,
1.0425,-0.0543213,
1.043,-0.0302124,
1.0435,0.010376,
1.044,0.0422668,
1.0445,0.0610352,
1.045,0.0488281,
1.0455,0.00610352,
1.046,-0.0396729,
1.0465,-0.0509644,
1.047,-0.0411987,
1.0475,-0.0454712,
1.048,-0.0531006,
1.0485,-0.0334167,
1.049,0.00228882,
1.0495,0.00167847,
1.05,-0.0309753,
1.0505,-0.0610352,
1.051,-0.114746,
1.0515,-0.216217,
1.052,-0.239868,
1.0525,-0.137024,
1.053,-0.0398254,
1.0535,-0.0282288,
1.054,-0.0262451,
1.0545,-0.00518799,
1.055,0.0202942,
1.0555,0.0593567,
1.056,0.108337,
1.0565,0.138855,
1.057,0.124817,
1.0575,0.0744629,
1.058,0.0164795,
1.0585,-0.0308228,
1.059,-0.0456238,
1.0595,-0.0332642,
1.06,-0.0469971,
1.0605,-0.0828552,
1.061,-0.0982666,
1.0615,-0.118713,
1.062,-0.14328,
1.0625,-0.139923,
1.063,-0.100708,
1.0635,-0.0634766,
1.064,-0.0622559,
1.0645,-0.0715637,
1.065,-0.0437927,
1.0655,0.01297,
1.066,0.0248718,
1.0665,-0.0154114,
1.067,-0.040741,
1.0675,-0.0541687,
1.068,-0.0526428,
1.0685,-0.0170898,
1.069,0.0453186,
1.0695,0.0979614,
1.07,0.162201,
1.0705,0.227051,
1.071,0.229645,
1.0715,0.162964,
1.072,0.0952148,
1.0725,0.0630188,
1.073,0.0434875,
1.0735,0.0204468,
1.074,0.00915527,
1.0745,-0.00228882,
1.075,-0.037384,
1.0755,-0.0572205,
1.076,-0.0186157,
1.0765,0.040741,
1.077,0.0550842,
1.0775,-0.00335693,
1.078,-0.0975037,
1.0785,-0.160828,
1.079,-0.170593,
1.0795,-0.152588,
1.08,-0.142212,
1.0805,-0.126343,
1.081,-0.0450134,
1.0815,0.0679016,
1.082,0.113678,
1.0825,0.070343,
1.083,0.0172424,
1.0835,0.0343323,
1.084,0.0959778,
1.0845,0.110626,
1.085,0.0485229,
1.0855,-0.078125,
1.086,-0.201416,
1.0865,-0.21225,
1.087,-0.115204,
1.0875,-0.00900269,
1.088,0.0480652,
1.0885,0.0238037,
1.089,-0.0718689,
1.0895,-0.146484,
1.09,-0.12207,
1.0905,-0.0521851,
1.091,0.00915527,
1.0915,0.0686646,
1.092,0.128326,
1.0925,0.161591,
1.093,0.174866,
1.0935,0.183868,
1.094,0.176697,
1.0945,0.161591,
1.095,0.169373,
1.0955,0.140076,
1.096,0.0444031,
1.0965,-0.0363159,
1.097,-0.0608826,
1.0975,-0.0595093,
1.098,-0.0672913,
1.0985,-0.0952148,
1.099,-0.0961304,
1.0995,-0.0382996,
1.1,0.0177002,
1.1005,0.0163269,
1.101,-0.0508118,
1.1015,-0.19104,
1.102,-0.327911,
1.1025,-0.407257,
1.103,-0.447083,
1.1035,-0.478516,
1.104,-0.483704,
1.1045,-0.420532,
1.105,-0.228424,
1.1055,0.0361633,
1.106,0.214386,
1.1065,0.263672,
1.107,0.299835,
1.1075,0.342865,
1.108,0.373993,
1.1085,0.390015,
1.109,0.381622,
1.1095,0.341949,
1.11,0.281372,
1.1105,0.219116,
1.111,0.16571,
1.1115,0.152435,
1.112,0.167542,
1.1125,0.16861,
1.113,0.142517,
1.1135,0.110474,
1.114,0.101318,
1.1145,0.0773621,
1.115,0.0244141,
1.1155,-0.0152588,
1.116,-0.0531006,
1.1165,-0.116577,
1.117,-0.164795,
1.1175,-0.163574,
1.118,-0.141907,
1.1185,-0.138397,
1.119,-0.135345,
1.1195,-0.070343,
1.12,0.0549316,
1.1205,0.171509,
1.121,0.21286,
1.1215,0.158844,
1.122,0.0343323,
1.1225,-0.0852966,
1.123,-0.137787,
1.1235,-0.110931,
1.124,-0.0410461,
1.1245,0.030365,
1.125,0.111389,
1.1255,0.1828,
1.126,0.178833,
1.1265,0.101318,
1.127,0.0402832,
1.1275,-0.00610352,
1.128,-0.0778198,
1.1285,-0.140533,
1.129,-0.138397,
1.1295,-0.088501,
1.13,-0.0579834,
1.1305,-0.0674438,
1.131,-0.0875854,
1.1315,-0.0872803,
1.132,-0.0674438,
1.1325,-0.0445557,
1.133,-0.0428772,
1.1335,-0.0502014,
1.134,-0.0524902,
1.1345,-0.0204468,
1.135,0.0302124,
1.1355,0.0291443,
1.136,-0.0256348,
1.1365,-0.0808716,
1.137,-0.103149,
1.1375,-0.105896,
1.138,-0.130463,
1.1385,-0.159607,
1.139,-0.164185,
1.1395,-0.129089,
1.14,-0.0808716,
1.1405,-0.0401306,
1.141,0.0138855,
1.1415,0.052948,
1.142,0.0450134,
1.1425,0.0149536,
1.143,0.00823975,
1.1435,0.0228882,
1.144,0.0306702,
1.1445,0.0271606,
1.145,0.00732422,
1.1455,-0.0404358,
1.146,-0.0993347,
1.1465,-0.140076,
1.147,-0.143585,
1.1475,-0.119629,
1.148,-0.0956726,
1.1485,-0.0721741,
1.149,-0.0448608,
1.1495,-0.0244141,
1.15,-0.0202942,
1.1505,-0.00457764,
1.151,0.0260925,
1.1515,0.0534058,
1.152,0.070343,
1.1525,0.0923157,
1.153,0.133972,
1.1535,0.172577,
1.154,0.198059,
1.1545,0.227814,
1.155,0.272064,
1.1555,0.307159,
1.156,0.286407,
1.1565,0.187531,
1.157,0.0521851,
1.1575,-0.0512695,
1.158,-0.0720215,
1.1585,-0.0541687,
1.159,-0.04776,
1.1595,-0.0346375,
1.16,0.0151062,
1.1605,0.0718689,
1.161,0.0991821,
1.1615,0.0724792,
1.162,0.00701904,
1.1625,-0.0634766,
1.163,-0.115662,
1.1635,-0.162048,
1.164,-0.221863,
1.1645,-0.284424,
1.165,-0.358124,
1.1655,-0.435028,
1.166,-0.48172,
1.1665,-0.43808,
1.167,-0.342102,
1.1675,-0.235596,
1.168,-0.115509,
1.1685,0.00259399,
1.169,0.110626,
1.1695,0.208282,
1.17,0.222168,
1.1705,0.15274,
1.171,0.112915,
1.1715,0.148621,
1.172,0.250549,
1.1725,0.368347,
1.173,0.444336,
1.1735,0.419464,
1.174,0.303345,
1.1745,0.200806,
1.175,0.120392,
1.1755,0.0192261,
1.176,-0.098877,
1.1765,-0.184021,
1.177,-0.164185,
1.1775,-0.0816345,
1.178,-0.0236511,
1.1785,0.00686646,
1.179,0.0361633,
1.1795,0.0453186,
1.18,0.0239563,
1.1805,-0.0222778,
1.181,-0.0714111,
1.1815,-0.112305,
1.182,-0.130768,
1.1825,-0.141144,
1.183,-0.177612,
1.1835,-0.208435,
1.184,-0.175781,
1.1845,-0.105896,
1.185,-0.0239563,
1.1855,0.0396729,
1.186,0.068512,
1.1865,0.0907898,
1.187,0.110321,
1.1875,0.121307,
1.188,0.136719,
1.1885,0.15152,
1.189,0.145111,
1.1895,0.11322,
1.19,0.0531006,
1.1905,0.0125122,
1.191,0.014801,
1.1915,0.0105286,
1.192,-0.0344849,
1.1925,-0.0773621,
1.193,-0.107422,
1.1935,-0.144653,
1.194,-0.164032,
1.1945,-0.171967,
1.195,-0.15274,
1.1955,-0.0732422,
1.196,0.0328064,
1.1965,0.106506,
1.197,0.0840759,
1.1975,0.0299072,
1.198,0.0358582,
1.1985,0.0968933,
1.199,0.121765,
1.1995,0.0689697,
1.2,0.00213623,
1.2005,-0.0349426,
1.201,-0.045166,
1.2015,-0.0512695,
1.202,-0.0369263,
1.2025,-0.0120544,
1.203,-0.0177002,
1.2035,-0.0219727,
1.204,0.00320435,
1.2045,0.00701904,
1.205,-0.0357056,
1.2055,-0.0588989,
1.206,-0.0152588,
1.2065,0.00183105,
1.207,-0.0567627,
1.2075,-0.118713,
1.208,-0.151062,
1.2085,-0.150757,
1.209,-0.0730896,
1.2095,0.0524902,
1.21,0.116119,
1.2105,0.110779,
1.211,0.101318,
1.2115,0.123749,
1.212,0.185547,
1.2125,0.237579,
1.213,0.218353,
1.2135,0.149078,
1.214,0.0730896,
1.2145,-0.000762939,
1.215,-0.0788879,
1.2155,-0.139771,
1.216,-0.164795,
1.2165,-0.168152,
1.217,-0.198822,
1.2175,-0.252075,
1.218,-0.261841,
1.2185,-0.204926,
1.219,-0.105896,
1.2195,0,
1.22,0.08255,
1.2205,0.142822,
1.221,0.189514,
1.2215,0.209808,
1.222,0.188751,
1.2225,0.135193,
1.223,0.104523,
1.2235,0.0878906,
1.224,0.0982666,
1.2245,0.102386,
1.225,0.0532532,
1.2255,-0.0100708,
1.226,-0.0413513,
1.2265,-0.039978,
1.227,-0.0521851,
1.2275,-0.0927734,
1.228,-0.112152,
1.2285,-0.0961304,
1.229,-0.0790405,
1.2295,-0.0582886,
1.23,-0.0241089,
1.2305,0.00305176,
1.231,0.0198364,
1.2315,0.0724792,
1.232,0.15976,
1.2325,0.15625,
1.233,0.0505066,
1.2335,-0.0170898,
1.234,-0.0160217,
1.2345,-0.0193787,
1.235,-0.0382996,
1.2355,-0.0465393,
1.236,-0.0404358,
1.2365,-0.0357056,
1.237,-0.0299072,
1.2375,-0.0184631,
1.238,-0.00762939,
1.2385,0.0137329,
1.239,0.0312805,
1.2395,0.0230408,
1.24,0.000152588,
1.2405,-0.0151062,
1.241,-0.0508118,
1.2415,-0.106964,
1.242,-0.147095,
1.2425,-0.182648,
1.243,-0.211487,
1.2435,-0.219574,
1.244,-0.18631,
1.2445,-0.136719,
1.245,-0.0775146,
1.2455,-0.00228882,
1.246,0.0350952,
1.2465,0.0215149,
1.247,0.022583,
1.2475,0.0750732,
1.248,0.150757,
1.2485,0.172882,
1.249,0.0978088,
1.2495,0.00427246,
1.25,-0.032959,
1.2505,0.0161743,
1.251,0.1091,
1.2515,0.153351,
1.252,0.167236,
1.2525,0.184326,
1.253,0.17334,
1.2535,0.153198,
1.254,0.130005,
1.2545,0.0794983,
1.255,0.0361633,
1.2555,0.0288391,
1.256,0.030365,
1.2565,0.0193787,
1.257,0.00305176,
1.2575,-0.014801,
1.258,-0.0395203,
1.2585,-0.0665283,
1.259,-0.0917053,
1.2595,-0.096283,
1.26,-0.0770569,
1.2605,-0.0558472,
1.261,-0.0694275,
1.2615,-0.108948,
1.262,-0.146484,
1.2625,-0.159607,
1.263,-0.135498,
1.2635,-0.139465,
1.264,-0.149384,
1.2645,-0.0927734,
1.265,-0.030365,
1.2655,-0.0205994,
1.266,-0.0192261,
1.2665,-0.00518799,
1.267,0.0268555,
1.2675,0.0746155,
1.268,0.0822449,
1.2685,0.0384521,
1.269,0.0152588,
1.2695,0.0317383,
1.27,0.0230408,
1.2705,-0.0369263,
1.271,-0.0816345,
1.2715,-0.093689,
1.272,-0.057373,
1.2725,-0.0315857,
1.273,-0.0593567,
1.2735,-0.0646973,
1.274,0.0186157,
1.2745,0.119019,
1.275,0.123901,
1.2755,0.0669861,
1.276,-0.00701904,
1.2765,-0.0938416,
1.277,-0.125885,
1.2775,-0.0822449,
1.278,-0.0177002,
1.2785,0.0689697,
1.279,0.16922,
1.2795,0.22934,
1.28,0.232544,
1.2805,0.22049,
1.281,0.167999,
1.2815,0.115356,
1.282,0.118256,
1.2825,0.0959778,
1.283,0.0325012,
1.2835,-0.0108337,
1.284,-0.0248718,
1.2845,-0.00762939,
1.285,0.0331116,
1.2855,0.0506592,
1.286,0.0418091,
1.2865,0.0521851,
1.287,0.0445557,
1.2875,-0.00274658,
1.288,-0.0624084,
1.2885,-0.126801,
1.289,-0.164337,
1.2895,-0.149994,
1.29,-0.117188,
1.2905,-0.113831,
1.291,-0.15564,
1.2915,-0.22995,
1.292,-0.264893,
1.2925,-0.239716,
1.293,-0.184021,
1.2935,-0.121765,
1.294,-0.132141,
1.2945,-0.156555,
1.295,-0.0964355,
1.2955,0.0765991,
1.296,0.249023,
1.2965,0.271912,
1.297,0.21637,
1.2975,0.208588,
1.298,0.193787,
1.2985,0.131531,
1.299,0.085907,
1.2995,0.106049,
1.3,0.128174,
1.3005,0.103149,
1.301,0.0862122,
1.3015,0.0973511,
1.302,0.0836182,
1.3025,0.0621033,
1.303,0.0654602,
1.3035,0.090332,
1.304,0.105591,
1.3045,0.10376,
1.305,0.0773621,
1.3055,-0.00213623,
1.306,-0.14328,
1.3065,-0.243378,
1.307,-0.20462,
1.3075,-0.0845337,
1.308,-0.0215149,
1.3085,-0.0320435,
1.309,-0.0732422,
1.3095,-0.129852,
1.31,-0.169525,
1.3105,-0.169067,
1.311,-0.128937,
1.3115,-0.0875854,
1.312,-0.0762939,
1.3125,-0.112915,
1.313,-0.183258,
1.3135,-0.216217,
1.314,-0.150909,
1.3145,-0.0621033,
1.315,-0.0282288,
1.3155,0.0132751,
1.316,0.0759888,
1.3165,0.0775146,
1.317,-0.0315857,
1.3175,-0.138245,
1.318,-0.135498,
1.3185,-0.0588989,
1.319,-0.00442505,
1.3195,-0.0143433,
1.32,-0.0288391,
1.3205,-0.00244141,
1.321,0.0402832,
1.3215,0.09552,
1.322,0.153809,
1.3225,0.20401,
1.323,0.258789,
1.3235,0.295868,
1.324,0.318298,
1.3245,0.376892,
1.325,0.410767,
1.3255,0.351257,
1.326,0.249023,
1.3265,0.16098,
1.327,0.0559998,
1.3275,-0.080719,
1.328,-0.172272,
1.3285,-0.204315,
1.329,-0.220795,
1.3295,-0.247955,
1.33,-0.284882,
1.3305,-0.29953,
1.331,-0.255127,
1.3315,-0.177612,
1.332,-0.142975,
1.3325,-0.124512,
1.333,-0.0442505,
1.3335,0.0672913,
1.334,0.153046,
1.3345,0.217438,
1.335,0.26474,
1.3355,0.233154,
1.336,0.0987244,
1.3365,-0.1091,
1.337,-0.293274,
1.3375,-0.389252,
1.338,-0.39917,
1.3385,-0.400238,
1.339,-0.460205,
1.3395,-0.498505,
1.34,-0.38208,
1.3405,-0.157776,
1.341,0.0579834,
1.3415,0.225372,
1.342,0.306854,
1.3425,0.371552,
1.343,0.39917,
1.3435,0.288696,
1.344,0.0914001,
1.3445,-0.00244141,
1.345,0.0918579,
1.3455,0.218811,
1.346,0.187225,
1.3465,0.0486755,
1.347,0.0247192,
1.3475,0.116577,
1.348,0.122833,
1.3485,0.0405884,
1.349,-0.0376892,
1.3495,-0.149841,
1.35,-0.31662,
1.3505,-0.417328,
1.351,-0.40329,
1.3515,-0.345917,
1.352,-0.276947,
1.3525,-0.146942,
1.353,-0.0190735,
1.3535,0.106201,
1.354,0.218201,
1.3545,0.230255,
1.355,0.261993,
1.3555,0.355377,
1.356,0.361176,
1.3565,0.295868,
1.357,0.208893,
1.3575,0.0778198,
1.358,-0.0286865,
1.3585,-0.0257874,
1.359,0.0762939,
1.3595,0.136566,
1.36,0.0686646,
1.3605,-0.154724,
1.361,-0.611267,
1.3615,-1.14075,
1.362,-1.29486,
1.3625,-0.849762,
1.363,-0.150757,
1.3635,0.201874,
1.364,0.173645,
1.3645,0.163879,
1.365,0.3862,
1.3655,0.726166,
1.366,0.91568,
1.3665,0.924072,
1.367,0.891724,
1.3675,0.887756,
1.368,0.859222,
1.3685,0.702667,
1.369,0.432434,
1.3695,0.1651,
1.37,0.000610352,
1.3705,-0.0727844,
1.371,-0.147705,
1.3715,-0.22934,
1.372,-0.240173,
1.3725,-0.174408,
1.373,-0.0794983,
1.3735,-0.0212097,
1.374,-0.0773621,
1.3745,-0.249481,
1.375,-0.418091,
1.3755,-0.444946,
1.376,-0.332489,
1.3765,-0.209656,
1.377,-0.160217,
1.3775,-0.207367,
1.378,-0.332031,
1.3785,-0.395966,
1.379,-0.336304,
1.3795,-0.238953,
1.38,-0.116577,
1.3805,0.00427246,
1.381,0.123596,
1.3815,0.234833,
1.382,0.258789,
1.3825,0.209808,
1.383,0.153351,
1.3835,0.0881958,
1.384,0.1091,
1.3845,0.153046,
1.385,0.132294,
1.3855,0.156555,
1.386,0.280762,
1.3865,0.296478,
1.387,0.144958,
1.3875,0.0524902,
1.388,0.0387573,
1.3885,-0.0202942,
1.389,-0.0915527,
1.3895,-0.102844,
1.39,-0.0862122,
1.3905,-0.0798035,
1.391,-0.0230408,
1.3915,0.0723267,
1.392,0.10498,
1.3925,0.110931,
1.393,0.130157,
1.3935,0.123749,
1.394,0.13031,
1.3945,0.148926,
1.395,0.13504,
1.3955,0.0769043,
1.396,-0.083313,
1.3965,-0.33432,
1.397,-0.521545,
1.3975,-0.427704,
1.398,-0.199127,
1.3985,-0.0976563,
1.399,-0.115509,
1.3995,-0.190125,
1.4,-0.241394,
1.4005,-0.180969,
1.401,-0.0749207,
1.4015,-0.014801,
1.402,0.0120544,
1.4025,0.0582886,
1.403,0.128021,
1.4035,0.111847,
1.404,-0.00366211,
1.4045,-0.0767517,
1.405,-0.078125,
1.4055,-0.0692749,
1.406,-0.0837708,
1.4065,-0.129547,
1.407,-0.174713,
1.4075,-0.191498,
1.408,-0.156097,
1.4085,-0.0891113,
1.409,-0.0621033,
1.4095,-0.10025,
1.41,-0.114594,
1.4105,-0.0956726,
1.411,-0.0866699,
1.4115,-0.0498962,
1.412,0.0161743,
1.4125,0.0773621,
1.413,0.0918579,
1.4135,0.0811768,
1.414,0.105133,
1.4145,0.145111,
1.415,0.12146,
1.4155,0.0796509,
1.416,0.0785828,
1.4165,0.0834656,
1.417,0.0497437,
1.4175,-0.0294495,
1.418,-0.0924683,
1.4185,-0.111237,
1.419,-0.098114,
1.4195,-0.0479126,
1.42,-0.000610352,
1.4205,-0.0198364,
1.421,-0.0823975,
1.4215,-0.0999451,
1.422,-0.0759888,
1.4225,-0.0468445,
1.423,-0.0157166,
1.4235,0.0192261,
1.424,0.0306702,
1.4245,0,
1.425,-0.0460815,
1.4255,-0.0370789,
1.426,0.00686646,
1.4265,0.0350952,
1.427,0.0257874,
1.4275,-0.0239563,
1.428,-0.098114,
1.4285,-0.14328,
1.429,-0.101471,
1.4295,-0.0244141,
1.43,-0.0152588,
1.4305,-0.0469971,
1.431,-0.0479126,
1.4315,-0.0204468,
1.432,0.0312805,
1.4325,0.110474,
1.433,0.141754,
1.4335,0.0810242,
1.434,-0.0195313,
1.4345,-0.0396729,
1.435,0.0656128,
1.4355,0.168304,
1.436,0.180359,
1.4365,0.113983,
1.437,0.0532532,
1.4375,0.0695801,
1.438,0.116425,
1.4385,0.098114,
1.439,0.0177002,
1.4395,-0.0785828,
1.44,-0.153809,
1.4405,-0.176544,
1.441,-0.128784,
1.4415,-0.059967,
1.442,-0.0289917,
1.4425,-0.0340271,
1.443,-0.0152588,
1.4435,0.0337219,
1.444,0.0520325,
1.4445,0.0375366,
1.445,0.0416565,
1.4455,0.0500488,
1.446,0.032196,
1.4465,0.057373,
1.447,0.141602,
1.4475,0.14267,
1.448,0.0447083,
1.4485,-0.0106812,
1.449,0.00854492,
1.4495,0.0463867,
1.45,0.0724792,
1.4505,0.0700378,
1.451,0.0457764,
1.4515,0.0386047,
1.452,0.0354004,
1.4525,0,
1.453,-0.0439453,
1.4535,-0.0485229,
1.454,-0.00518799,
1.4545,0.0500488,
1.455,0.0787354,
1.4555,0.0637817,
1.456,0.0227356,
1.4565,-0.00839233,
1.457,0.0062561,
1.4575,0.0543213,
1.458,0.0668335,
1.4585,0.0282288,
1.459,-0.00442505,
1.4595,-0.0187683,
1.46,-0.0714111,
1.4605,-0.141449,
1.461,-0.160217,
1.4615,-0.141602,
1.462,-0.109711,
1.4625,-0.0883484,
1.463,-0.087738,
1.4635,-0.124054,
1.464,-0.1651,
1.4645,-0.177155,
1.465,-0.166626,
1.4655,-0.101166,
1.466,0.0128174,
1.4665,0.0804138,
1.467,0.0798035,
1.4675,0.0643921,
1.468,0.0740051,
1.4685,0.0843811,
1.469,0.0880432,
1.4695,0.114288,
1.47,0.157776,
1.4705,0.193939,
1.471,0.178986,
1.4715,0.108643,
1.472,-0.0111389,
1.4725,-0.0395203,
1.473,0.0845337,
1.4735,0.185394,
1.474,0.216217,
1.4745,0.185699,
1.475,0.0675964,
1.4755,-0.035553,
1.476,-0.0619507,
1.4765,-0.0538635,
1.477,-0.071106,
1.4775,-0.104218,
1.478,-0.0817871,
1.4785,0.00396729,
1.479,0.105896,
1.4795,0.186462,
1.48,0.210419,
1.4805,0.174103,
1.481,0.115967,
1.4815,0.0674438,
1.482,0.00915527,
1.4825,-0.0683594,
1.483,-0.122681,
1.4835,-0.12207,
1.484,-0.116425,
1.4845,-0.112152,
1.485,-0.0778198,
1.4855,-0.0668335,
1.486,-0.0897217,
1.4865,-0.0700378,
1.487,-0.00427246,
1.4875,0.0737,
1.488,0.118561,
1.4885,0.0956726,
1.489,0.0335693,
1.4895,-0.0558472,
1.49,-0.119934,
1.4905,-0.122528,
1.491,-0.0744629,
1.4915,-0.0135803,
1.492,0.000762939,
1.4925,-0.0309753,
1.493,-0.0717163,
1.4935,-0.119629,
1.494,-0.154266,
1.4945,-0.136414,
1.495,-0.100861,
1.4955,-0.0788879,
1.496,-0.0454712,
1.4965,0.0151062,
1.497,0.0871277,
1.4975,0.11261,
1.498,0.0840759,
1.4985,0.0550842,
1.499,0.0411987,
1.4995,0.012207,
1.5,-0.0164795,
1.5005,-0.0338745,
1.501,-0.0790405,
1.5015,-0.141907,
1.502,-0.154266,
1.5025,-0.114746,
1.503,-0.0941467,
1.5035,-0.105896,
1.504,-0.0886536,
1.5045,-0.0437927,
1.505,-0.0372314,
1.5055,-0.0718689,
1.506,-0.098877,
1.5065,-0.110779,
1.507,-0.102692,
1.5075,-0.0567627,
1.508,0.0120544,
1.5085,0.0715637,
1.509,0.0808716,
1.5095,0.0611877,
1.51,0.0579834,
1.5105,0.0773621,
1.511,0.0947571,
1.5115,0.137024,
1.512,0.200806,
1.5125,0.23819,
1.513,0.211182,
1.5135,0.132599,
1.514,0.093689,
1.5145,0.116272,
1.515,0.110168,
1.5155,0.0506592,
1.516,0.00686646,
1.5165,0.0167847,
1.517,0.0357056,
1.5175,0.027771,
1.518,0.00411987,
1.5185,-0.00961304,
1.519,-0.0317383,
1.5195,-0.0694275,
1.52,-0.10437,
1.5205,-0.124969,
1.521,-0.13916,
1.5215,-0.151367,
1.522,-0.150299,
1.5225,-0.093689,
1.523,0.0489807,
1.5235,0.189514,
1.524,0.197144,
1.5245,0.067749,
1.525,-0.0556946,
1.5255,-0.0608826,
1.526,0.0170898,
1.5265,0.0402832,
1.527,0.0172424,
1.5275,0.0111389,
1.528,0.018158,
1.5285,0.043335,
1.529,0.0862122,
1.5295,0.0978088,
1.53,0.070343,
1.5305,0.0366211,
1.531,-0.00473022,
1.5315,-0.0389099,
1.532,-0.0575256,
1.5325,-0.0718689,
1.533,-0.068512,
1.5335,-0.0431824,
1.534,-0.0125122,
1.5345,0.0109863,
1.535,0.0114441,
1.5355,-0.0160217,
1.536,-0.0473022,
1.5365,-0.0682068,
1.537,-0.0709534,
1.5375,-0.0500488,
1.538,-0.014801,
1.5385,0.0125122,
1.539,-0.0151062,
1.5395,-0.0724792,
1.54,-0.0715637,
1.5405,-0.0137329,
1.541,0.0193787,
1.5415,0.0325012,
1.542,0.0892639,
1.5425,0.14801,
1.543,0.116425,
1.5435,0.0209045,
1.544,-0.0727844,
1.5445,-0.103912,
1.545,-0.0657654,
1.5455,-0.0184631,
1.546,0.00198364,
1.5465,-0.00228882,
1.547,-0.0157166,
1.5475,-0.0189209,
1.548,0.000457764,
1.5485,0.0254822,
1.549,0.0387573,
1.5495,0.0323486,
1.55,0.0166321,
1.5505,0.00808716,
1.551,0.000457764,
1.5515,-0.00106812,
1.552,0.0134277,
1.5525,0.0444031,
1.553,0.0485229,
1.5535,0.00869751,
1.554,-0.0311279,
1.5545,-0.0520325,
1.555,-0.0708008,
1.5555,-0.0700378,
1.556,-0.0694275,
1.5565,-0.0935364,
1.557,-0.114136,
1.5575,-0.116882,
1.558,-0.0993347,
1.5585,-0.052948,
1.559,0.0105286,
1.5595,0.0540161,
1.56,0.0427246,
1.5605,-0.0167847,
1.561,-0.0250244,
1.5615,0.0588989,
1.562,0.0834656,
1.5625,0.00305176,
1.563,-0.0314331,
1.5635,-0.0227356,
1.564,-0.0372314,
1.5645,-0.0456238,
1.565,-0.0317383,
1.5655,-0.0509644,
1.566,-0.0897217,
1.5665,-0.0701904,
1.567,0.0193787,
1.5675,0.120697,
1.568,0.157776,
1.5685,0.100861,
1.569,0.0570679,
1.5695,0.09552,
1.57,0.115051,
1.5705,0.0386047,
1.571,-0.100861,
1.5715,-0.182037,
1.572,-0.156708,
1.5725,-0.0714111,
1.573,-0.00442505,
1.5735,0.0196838,
1.574,0.00823975,
1.5745,0.00610352,
1.575,0.0357056,
1.5755,0.050354,
1.576,0.0312805,
1.5765,0.0205994,
1.577,0.0309753,
1.5775,0.0283813,
1.578,0.0146484,
1.5785,-0.0379944,
1.579,-0.117035,
1.5795,-0.114594,
1.58,-0.0315857,
1.5805,0.0238037,
1.581,0.0187683,
1.5815,-0.0209045,
1.582,-0.0772095,
1.5825,-0.0961304,
1.583,-0.0990295,
1.5835,-0.098877,
1.584,-0.0737,
1.5845,0.0953674,
1.585,0.127106,
1.5855,0.0770569,
1.586,0.0312805,
1.5865,0.0216675,
1.587,0.0395203,
1.5875,0.0445557,
1.588,0.0184631,
1.5885,-0.0212097,
1.589,-0.0410461,
1.5895,-0.0466919,
1.59,-0.0474548,
1.5905,-0.0473022,
1.591,-0.0471497,
1.5915,-0.0489807,
1.592,-0.0619507,
1.5925,-0.0770569,
1.593,-0.0740051,
1.5935,-0.0630188,
1.594,-0.0639343,
1.5945,-0.0810242,
1.595,-0.085907,
1.5955,-0.0585938,
1.596,-0.00869751,
1.5965,0.0474548,
1.597,0.0793457,
1.5975,0.0564575,
1.598,-0.00595093,
1.5985,-0.0213623,
1.599,0.0233459,
1.5995,0.0256348,
1.6,-0.012207,
1.6005,-0.00350952,
1.601,-0.0126648,
1.6015,-0.0726318,
1.602,-0.112457,
1.6025,-0.118408,
1.603,-0.121155,
1.6035,-0.117645,
1.604,-0.112,
1.6045,-0.0935364,
1.605,-0.0328064,
1.6055,0.0245667,
1.606,0.0596619,
1.6065,0.0794983,
1.607,0.0740051,
1.6075,0.0273132,
1.608,-0.01297,
1.6085,0.0259399,
1.609,0.118103,
1.6095,0.159454,
1.61,0.0666809,
1.6105,-0.0572205,
1.611,-0.0862122,
1.6115,-0.0801086,
1.612,-0.0938416,
1.6125,-0.0805664,
1.613,-0.0708008,
1.6135,-0.109711,
1.614,-0.111084,
1.6145,0.00549316,
1.615,0.124664,
1.6155,0.119629,
1.616,0.0387573,
1.6165,-0.0308228,
1.617,-0.0337219,
1.6175,0.0527954,
1.618,0.118256,
1.6185,0.0860596,
1.619,0.0299072,
1.6195,-0.0192261,
1.62,-0.0613403,
1.6205,-0.103607,
1.621,-0.167084,
1.6215,-0.184326,
1.622,-0.124969,
1.6225,-0.071106,
1.623,-0.0556946,
1.6235,-0.0370789,
1.624,-0.0109863,
1.6245,-0.0219727,
1.625,-0.0361633,
1.6255,-0.00610352,
1.626,0.0273132,
1.6265,0.0384521,
1.627,0.0643921,
1.6275,0.120392,
1.628,0.131683,
1.6285,0.0444031,
1.629,-0.0776672,
1.6295,-0.147552,
1.63,-0.187073,
1.6305,-0.175323,
1.631,-0.130463,
1.6315,-0.124359,
1.632,-0.170746,
1.6325,-0.222168,
1.633,-0.250854,
1.6335,-0.259399,
1.634,-0.244598,
1.6345,-0.186768,
1.635,-0.10849,
1.6355,-0.0486755,
1.636,0.00869751,
1.6365,0.0660706,
1.637,0.0817871,
1.6375,0.0280762,
1.638,-0.0842285,
1.6385,-0.16037,
1.639,-0.177002,
1.6395,-0.130005,
1.64,-0.0012207,
1.6405,0.096283,
1.641,0.118408,
1.6415,0.147247,
1.642,0.17807,
1.6425,0.154266,
1.643,0.0993347,
1.6435,0.0726318,
1.644,0.0790405,
1.6445,0.0946045,
1.645,0.0991821,
1.6455,0.0759888,
1.646,0.0289917,
1.6465,-0.0175476,
1.647,-0.0209045,
1.6475,0.0177002,
1.648,0.0369263,
1.6485,0.0405884,
1.649,0.0595093,
1.6495,0.0665283,
1.65,0.037384,
1.6505,0.000305176,
1.651,-0.0408936,
1.6515,-0.0675964,
1.652,-0.0453186,
1.6525,-0.010376,
1.653,0.0137329,
1.6535,0.037384,
1.654,0.0447083,
1.6545,0.0125122,
1.655,-0.0448608,
1.6555,-0.0770569,
1.656,-0.0474548,
1.6565,-0.00198364,
1.657,0.00106812,
1.6575,-0.015564,
1.658,-0.00915527,
1.6585,0.0149536,
1.659,0.0138855,
1.6595,-0.0119019,
1.66,-0.0340271,
1.6605,-0.000915527,
1.661,0.0337219,
1.6615,0.00350952,
1.662,-0.0482178,
1.6625,-0.042572,
1.663,0.00198364,
1.6635,0.020752,
1.664,0.0601196,
1.6645,0.15686,
1.665,0.218201,
1.6655,0.163574,
1.666,0.0616455,
1.6665,-0.0238037,
1.667,-0.0648499,
1.6675,-0.0741577,
1.668,-0.0584412,
1.6685,0.0141907,
1.669,0.127258,
1.6695,0.187073,
1.67,0.1297,
1.6705,0.0259399,
1.671,-0.0415039,
1.6715,-0.0942993,
1.672,-0.12619,
1.6725,-0.0567627,
1.673,0.042572,
1.6735,0.0431824,
1.674,-0.00930786,
1.6745,-0.0492859,
1.675,-0.0624084,
1.6755,-0.0556946,
1.676,-0.0535583,
1.6765,-0.0540161,
1.677,0.00137329,
1.6775,0.127563,
1.678,0.233154,
1.6785,0.219879,
1.679,0.13855,
1.6795,0.0822449,
1.68,0.0541687,
1.6805,0.00411987,
1.681,-0.0582886,
1.6815,-0.0938416,
1.682,-0.0775146,
1.6825,-0.0128174,
1.683,0.0579834,
1.6835,0.0868225,
1.684,0.0720215,
1.6845,0.0592041,
1.685,0.04776,
1.6855,0.00366211,
1.686,-0.0296021,
1.6865,-0.0193787,
1.687,-0.00793457,
1.6875,0.00915527,
1.688,0.00350952,
1.6885,-0.00717163,
1.689,0.0453186,
1.6895,0.115509,
1.69,0.1297,
1.6905,0.0680542,
1.691,-0.0114441,
1.6915,-0.038147,
1.692,-0.037384,
1.6925,-0.0100708,
1.693,0.00991821,
1.6935,-0.0038147,
1.694,-0.0273132,
1.6945,-0.0276184,
1.695,0.000457764,
1.6955,0.0219727,
1.696,-0.00198364,
1.6965,-0.0744629,
1.697,-0.128632,
1.6975,-0.0727844,
1.698,0.0444031,
1.6985,0.10498,
1.699,0.0587463,
1.6995,0.00137329,
1.7,0.000152588,
1.7005,-0.0224304,
1.701,-0.0646973,
1.7015,-0.0579834,
1.702,-0.00595093,
1.7025,0.0305176,
1.703,0.0184631,
1.7035,0.0230408,
1.704,0.067749,
1.7045,0.0900269,
1.705,0.0537109,
1.7055,0.00991821,
1.706,0.018158,
1.7065,0.0389099,
1.707,0.0230408,
1.7075,0.00823975,
1.708,0.00778198,
1.7085,0.0248718,
1.709,0.0540161,
1.7095,0.0271606,
1.71,-0.0369263,
1.7105,-0.0395203,
1.711,0.0343323,
1.7115,0.0508118,
1.712,-0.0088501,
1.7125,-0.0646973,
1.713,-0.0907898,
1.7135,-0.100098,
1.714,-0.0753784,
1.7145,-0.0462341,
1.715,-0.0453186,
1.7155,-0.04776,
1.716,-0.0521851,
1.7165,-0.0442505,
1.717,-0.0263977,
1.7175,-0.0526428,
1.718,-0.0964355,
1.7185,-0.0907898,
1.719,-0.0378418,
1.7195,-0.00778198,
1.72,-0.0378418,
1.7205,-0.112457,
1.721,-0.11795,
1.7215,-0.0410461,
1.722,-0.0404358,
1.7225,-0.144958,
1.723,-0.176086,
1.7235,-0.0335693,
1.724,0.117798,
1.7245,0.142517,
1.725,0.0724792,
1.7255,0.00930786,
1.726,0.0141907,
1.7265,0.113373,
1.727,0.167999,
1.7275,0.0653076,
1.728,-0.0708008,
1.7285,-0.115051,
1.729,-0.113983,
1.7295,-0.0790405,
1.73,-0.0370789,
1.7305,0.0151062,
1.731,0.0735474,
1.7315,0.101624,
1.732,0.0949097,
1.7325,0.0402832,
1.733,-0.00961304,
1.7335,-0.0221252,
1.734,-0.0349426,
1.7345,-0.0254822,
1.735,0.0135803,
1.7355,0.0517273,
1.736,0.090332,
1.7365,0.102997,
1.737,0.0744629,
1.7375,0.0111389,
1.738,-0.0509644,
1.7385,-0.0814819,
1.739,-0.100708,
1.7395,-0.0865173,
1.74,-0.0675964,
1.7405,-0.0872803,
1.741,-0.0982666,
1.7415,-0.0704956,
1.742,-0.0357056,
1.7425,-0.00915527,
1.743,0.00961304,
1.7435,0.0335693,
1.744,0.0686646,
1.7445,0.0782776,
1.745,0.0654602,
1.7455,0.0517273,
1.746,0.00976563,
1.7465,-0.0808716,
1.747,-0.144958,
1.7475,-0.123901,
1.748,-0.0527954,
1.7485,-0.00183105,
1.749,-0.068512,
1.7495,-0.169373,
1.75,-0.136261,
1.7505,-0.00213623,
1.751,0.149384,
1.7515,0.247345,
1.752,0.242615,
1.7525,0.206604,
1.753,0.156097,
1.7535,-0.00320435,
1.754,-0.210419,
1.7545,-0.275879,
1.755,-0.192108,
1.7555,-0.101776,
1.756,-0.0411987,
1.7565,-0.00183105,
1.757,-0.0439453,
1.7575,-0.108795,
1.758,-0.0680542,
1.7585,0.020752,
1.759,0.0617981,
1.7595,0.0758362,
1.76,0.0460815,
1.7605,0.0126648,
1.761,0.0442505,
1.7615,0.0849915,
1.762,0.10025,
1.7625,0.0845337,
1.763,-0.0166321,
1.7635,-0.0897217,
1.764,0.0109863,
1.7645,0.115356,
1.765,0.0723267,
1.7655,0.0221252,
1.766,0.0337219,
1.7665,0.00839233,
1.767,-0.0865173,
1.7675,-0.188599,
1.768,-0.235901,
1.7685,-0.232544,
1.769,-0.20752,
1.7695,-0.0978088,
1.77,0.0759888,
1.7705,0.203552,
1.771,0.266266,
1.7715,0.261688,
1.772,0.280914,
1.7725,0.335236,
1.773,0.348358,
1.7735,0.299988,
1.774,0.207062,
1.7745,0.0958252,
1.775,0.050354,
1.7755,0.0515747,
1.776,0.058136,
1.7765,0.0740051,
1.777,0.0653076,
1.7775,0.0700378,
1.778,0.147095,
1.7785,0.23941,
1.779,0.264587,
1.7795,0.187225,
1.78,-0.0466919,
1.7805,-0.352173,
1.781,-0.469666,
1.7815,-0.404816,
1.782,-0.38147,
1.7825,-0.445862,
1.783,-0.490265,
1.7835,-0.477142,
1.784,-0.431213,
1.7845,-0.355225,
1.785,-0.231171,
1.7855,-0.00976563,
1.786,0.218811,
1.7865,0.28244,
1.787,0.165405,
1.7875,0.0271606,
1.788,-0.0312805,
1.7885,-0.0366211,
1.789,-0.0349426,
1.7895,-0.0314331,
1.79,-0.0334167,
1.7905,-0.00518799,
1.791,0.0883484,
1.7915,0.192871,
1.792,0.215759,
1.7925,0.1651,
1.793,0.0746155,
1.7935,0.0151062,
1.794,0.00320435,
1.7945,0.00457764,
1.795,0.00198364,
1.7955,-0.00656128,
1.796,-0.0256348,
1.7965,-0.0613403,
1.797,-0.0630188,
1.7975,-0.0216675,
1.798,-0.0141907,
1.7985,-0.0590515,
1.799,-0.096283,
1.7995,-0.0994873,
1.8,-0.109253,
1.8005,-0.197449,
1.801,-0.255432,
1.8015,-0.10788,
1.802,0.182343,
1.8025,0.343933,
1.803,0.249176,
1.8035,0.0415039,
1.804,-0.107269,
1.8045,-0.181122,
1.805,-0.145264,
1.8055,-0.03479,
1.806,0.00518799,
1.8065,-0.0476074,
1.807,-0.0914001,
1.8075,-0.0521851,
1.808,0.0280762,
1.8085,0.0733948,
1.809,0.0836182,
1.8095,0.115356,
1.81,0.17746,
1.8105,0.230255,
1.811,0.223694,
1.8115,0.135345,
1.812,0.0299072,
1.8125,0.0317383,
1.813,0.0990295,
1.8135,0.124817,
1.814,0.137024,
1.8145,0.157013,
1.815,0.143127,
1.8155,0.0935364,
1.816,0.0202942,
1.8165,-0.0419617,
1.817,-0.0445557,
1.8175,-0.0253296,
1.818,-0.0463867,
1.8185,-0.109863,
1.819,-0.163116,
1.8195,-0.151062,
1.82,-0.102539,
1.8205,-0.106812,
1.821,-0.160675,
1.8215,-0.166321,
1.822,-0.104218,
1.8225,-0.022583,
1.823,0.0305176,
1.8235,0.0691223,
1.824,0.0720215,
1.8245,-0.0244141,
1.825,-0.173492,
1.8255,-0.199127,
1.826,-0.0216675,
1.8265,0.155182,
1.827,0.172272,
1.8275,0.0788879,
1.828,-0.0115967,
1.8285,-0.0595093,
1.829,-0.058136,
1.8295,-0.0442505,
1.83,-0.0180054,
1.8305,0.0738525,
1.831,0.210876,
1.8315,0.293732,
1.832,0.275116,
1.8325,0.193329,
1.833,0.0883484,
1.8335,0.0273132,
1.834,0.00106812,
1.8345,-0.0611877,
1.835,-0.155945,
1.8355,-0.212402,
1.836,-0.213013,
1.8365,-0.202026,
1.837,-0.219116,
1.8375,-0.184479,
1.838,-0.0543213,
1.8385,0.0836182,
1.839,0.200348,
1.8395,0.281525,
1.84,0.316772,
1.8405,0.29068,
1.841,0.218964,
1.8415,0.143738,
1.842,0.0643921,
1.8425,-0.0305176,
1.843,-0.090332,
1.8435,-0.0708008,
1.844,-0.0190735,
1.8445,-0.00244141,
1.845,-0.00350952,
1.8455,-0.0352478,
1.846,-0.0680542,
1.8465,-0.0531006,
1.847,-0.0247192,
1.8475,-0.0263977,
1.848,-0.0561523,
1.8485,-0.0863647,
1.849,-0.123596,
1.8495,-0.171967,
1.85,-0.144653,
1.8505,0.0166321,
1.851,0.119324,
1.8515,0.0820923,
1.852,0.0384521,
1.8525,0.0563049,
1.853,0.0698853,
1.8535,0.058136,
1.854,0.0665283,
1.8545,0.0611877,
1.855,0.0154114,
1.8555,-0.0308228,
1.856,-0.055542,
1.8565,-0.0849915,
1.857,-0.108948,
1.8575,-0.104675,
1.858,-0.0808716,
1.8585,-0.113525,
1.859,-0.223999,
1.8595,-0.329742,
1.86,-0.318451,
1.8605,-0.227509,
1.861,-0.191803,
1.8615,-0.179749,
1.862,0.0102234,
1.8625,0.336151,
1.863,0.516052,
1.8635,0.404358,
1.864,0.165253,
1.8645,0.0495911,
1.865,0.0561523,
1.8655,0.0315857,
1.866,-0.0622559,
1.8665,-0.104218,
1.867,-0.0219727,
1.8675,0.124664,
1.868,0.232544,
1.8685,0.292816,
1.869,0.332489,
1.8695,0.327759,
1.87,0.264893,
1.8705,0.189362,
1.871,0.116119,
1.8715,0.0230408,
1.872,-0.0415039,
1.8725,-0.063324,
1.873,-0.100555,
1.8735,-0.142059,
1.874,-0.135345,
1.8745,-0.0675964,
1.875,0.0050354,
1.8755,0.0378418,
1.876,0.0466919,
1.8765,0.0404358,
1.877,0.0315857,
1.8775,0.0390625,
1.878,0.035553,
1.8785,-0.00320435,
1.879,-0.057373,
1.8795,-0.0878906,
1.88,-0.0881958,
1.8805,-0.098877,
1.881,-0.126343,
1.8815,-0.128937,
1.882,-0.110321,
1.8825,-0.0860596,
1.883,-0.0791931,
1.8835,-0.0765991,
1.884,-0.0743103,
1.8845,-0.0888062,
1.885,-0.105133,
1.8855,-0.0991821,
1.886,-0.0793457,
1.8865,-0.0544739,
1.887,-0.0364685,
1.8875,-0.0253296,
1.888,0.00549316,
1.8885,0.0508118,
1.889,0.0869751,
1.8895,0.0883484,
1.89,0.062561,
1.8905,0.0219727,
1.891,-0.0170898,
1.8915,-0.0344849,
1.892,-0.0363159,
1.8925,-0.0428772,
1.893,-0.0360107,
1.8935,-0.0379944,
1.894,-0.0535583,
1.8945,-0.0370789,
1.895,0.0177002,
1.8955,0.0405884,
1.896,0.0198364,
1.8965,-0.0115967,
1.897,0.00350952,
1.8975,0.0508118,
1.898,0.0616455,
1.8985,0.0361633,
1.899,0.012207,
1.8995,-0.00198364,
1.9,-0.00305176,
1.9005,-0.0201416,
1.901,-0.0648499,
1.9015,-0.0595093,
1.902,-0.0210571,
1.9025,-0.0306702,
1.903,-0.0434875,
1.9035,0.01297,
1.904,0.0891113,
1.9045,0.122681,
1.905,0.140228,
1.9055,0.139465,
1.906,0.0675964,
1.9065,-0.0495911,
1.907,-0.116577,
1.9075,-0.118866,
1.908,-0.113831,
1.9085,-0.16449,
1.909,-0.225525,
1.9095,-0.204773,
1.91,-0.110779,
1.9105,-0.000305176,
1.911,0.0726318,
1.9115,0.0856018,
1.912,0.0506592,
1.9125,0.00411987,
1.913,-0.0646973,
1.9135,-0.162811,
1.914,-0.178833,
1.9145,-0.110474,
1.915,-0.0582886,
1.9155,-0.0610352,
1.916,-0.0511169,
1.9165,0.018158,
1.917,0.0505066,
1.9175,-0.0088501,
1.918,-0.0688171,
1.9185,-0.0624084,
1.919,-0.0308228,
1.9195,-0.0137329,
1.92,-0.0224304,
1.9205,-0.0593567,
1.921,-0.115662,
1.9215,-0.118408,
1.922,-0.0546265,
1.9225,-0.00610352,
1.923,0.0318909,
1.9235,0.107117,
1.924,0.162964,
1.9245,0.128784,
1.925,0.0379944,
1.9255,-0.00595093,
1.926,0.0135803,
1.9265,0.0372314,
1.927,0.0193787,
1.9275,-0.0270081,
1.928,-0.0541687,
1.9285,-0.0450134,
1.929,-0.058136,
1.9295,-0.0863647,
1.93,-0.0991821,
1.9305,-0.119019,
1.931,-0.160522,
1.9315,-0.19989,
1.932,-0.19516,
1.9325,-0.170288,
1.933,-0.180969,
1.9335,-0.161743,
1.934,0.0184631,
1.9345,0.305939,
1.935,0.49057,
1.9355,0.441284,
1.936,0.256195,
1.9365,0.132751,
1.937,0.088501,
1.9375,0.0540161,
1.938,0.0437927,
1.9385,0.0415039,
1.939,0.022583,
1.9395,-0.00610352,
1.94,-0.0350952,
1.9405,-0.0234985,
1.941,0.0334167,
1.9415,0.0601196,
1.942,0.0866699,
1.9425,0.109406,
1.943,0.050354,
1.9435,-0.0535583,
1.944,-0.125427,
1.9445,-0.111847,
1.945,-0.0338745,
1.9455,0.0575256,
1.946,0.121613,
1.9465,0.115814,
1.947,0.0460815,
1.9475,-0.0189209,
1.948,-0.0793457,
1.9485,-0.148773,
1.949,-0.17868,
1.9495,-0.187073,
1.95,-0.204315,
1.9505,-0.161133,
1.951,-0.0485229,
1.9515,0.0325012,
1.952,0.0935364,
1.9525,0.128784,
1.953,0.131836,
1.9535,0.130463,
1.954,0.125427,
1.9545,0.112762,
1.955,0.0920105,
1.9555,0.0495911,
1.956,0.0231934,
1.9565,0.0567627,
1.957,0.0848389,
1.9575,0.0416565,
1.958,-0.0296021,
1.9585,-0.0474548,
1.959,-0.0299072,
1.9595,-0.00732422,
1.96,0.0318909,
1.9605,0.0531006,
1.961,0.0227356,
1.9615,-0.0718689,
1.962,-0.15213,
1.9625,-0.150757,
1.963,-0.0737,
1.9635,0.0205994,
1.964,0.083313,
1.9645,0.0999451,
1.965,0.0798035,
1.9655,0.0453186,
1.966,0.0357056,
1.9665,0.0462341,
1.967,0.0389099,
1.9675,-0.0169373,
1.968,-0.0782776,
1.9685,-0.0779724,
1.969,-0.0382996,
1.9695,-0.0164795,
1.97,-0.0114441,
1.9705,0.0201416,
1.971,0.0694275,
1.9715,0.0892639,
1.972,0.101776,
1.9725,0.138702,
1.973,0.172577,
1.9735,0.145111,
1.974,0.0241089,
1.9745,-0.148163,
1.975,-0.220642,
1.9755,-0.156097,
1.976,-0.0732422,
1.9765,-0.0624084,
1.977,-0.102386,
1.9775,-0.132446,
1.978,-0.131531,
1.9785,-0.0559998,
1.979,0.0553894,
1.9795,0.0959778,
1.98,0.0866699,
1.9805,0.0875854,
1.981,0.09552,
1.9815,0.0697327,
1.982,0.0123596,
1.9825,-0.0125122,
1.983,0.0140381,
1.9835,0.0263977,
1.984,-0.0038147,
1.9845,-0.0343323,
1.985,-0.0666809,
1.9855,-0.101471,
1.986,-0.1297,
1.9865,-0.148926,
1.987,-0.154266,
1.9875,-0.125885,
1.988,-0.0845337,
1.9885,-0.0827026,
1.989,-0.0924683,
1.9895,-0.0698853,
1.99,-0.00946045,
1.9905,0.0396729,
1.991,0.0479126,
1.9915,0.0679016,
1.992,0.133057,
1.9925,0.156555,
1.993,0.0747681,
1.9935,-0.0440979,
1.994,-0.0802612,
1.9945,-0.0559998,
1.995,-0.0466919,
1.9955,-0.050354,
1.996,-0.0340271,
1.9965,-0.0175476,
1.997,0.00610352,
1.9975,0.0317383,
1.998,0.0747681,
1.9985,0.142365,
1.999,0.145874,
1.9995,0.0889587,
2,0.0349426,
2.0005,0.00259399,
2.001,-0.0164795,
2.0015,-0.0198364,
2.002,0.00564575,
2.0025,0.0468445,
2.003,0.0619507,
2.0035,0.0256348,
2.004,-0.0157166,
2.0045,-0.0219727,
2.005,-0.0393677,
2.0055,-0.0630188,
2.006,-0.0439453,
2.0065,-0.00671387,
2.007,0.010376,
2.0075,0.0244141,
2.008,0.0183105,
2.0085,-0.0311279,
2.009,-0.0566101,
2.0095,-0.0128174,
2.01,0.0201416,
2.0105,0.0178528,
2.011,0.00152588,
2.0115,-0.0363159,
2.012,-0.0819397,
2.0125,-0.0956726,
2.013,-0.0552368,
2.0135,0.00137329,
2.014,0.0213623,
2.0145,-0.0144958,
2.015,-0.06073,
2.0155,-0.0662231,
2.016,-0.0413513,
2.0165,-0.0186157,
2.017,-0.0106812,
2.0175,-0.035553,
2.018,-0.0462341,
2.0185,-0.0106812,
2.019,0.0648499,
2.0195,0.118103,
2.02,0.0952148,
2.0205,0.0376892,
2.021,-0.0125122,
2.0215,-0.0404358,
2.022,-0.01297,
2.0225,0.0169373,
2.023,-0.0109863,
2.0235,-0.0541687,
2.024,-0.0668335,
2.0245,-0.0575256,
2.025,-0.0523376,
2.0255,-0.0267029,
2.026,0.0178528,
2.0265,0.0447083,
2.027,0.0767517,
2.0275,0.119934,
2.028,0.114288,
2.0285,0.0489807,
2.029,0.00640869,
2.0295,0.0195313,
2.03,0.0427246,
2.0305,0.00671387,
2.031,-0.0860596,
2.0315,-0.154419,
2.032,-0.168152,
2.0325,-0.158691,
2.033,-0.136719,
2.0335,-0.0730896,
2.034,0.0466919,
2.0345,0.178528,
2.035,0.227509,
2.0355,0.168762,
2.036,0.0863647,
2.0365,0.032196,
2.037,0.00152588,
2.0375,-0.0178528,
2.038,-0.0218201,
2.0385,-0.0105286,
2.039,-0.0105286,
2.0395,0.00396729,
2.04,0.042572,
2.0405,0.0390625,
2.041,-0.0430298,
2.0415,-0.131226,
2.042,-0.131836,
2.0425,-0.0419617,
2.043,0.0613403,
2.0435,0.0759888,
2.044,0.0656128,
2.0445,0.101776,
2.045,0.135956,
2.0455,0.110779,
2.046,0.0596619,
2.0465,0.0518799,
2.047,0.0619507,
2.0475,0.0759888,
2.048,0.0953674,
2.0485,0.0775146,
2.049,0.0135803,
2.0495,-0.0192261,
2.05,-0.0210571,
2.0505,-0.0485229,
2.051,-0.0669861,
2.0515,-0.0604248,
2.052,-0.0985718,
2.0525,-0.184021,
2.053,-0.236206,
2.0535,-0.249481,
2.054,-0.256653,
2.0545,-0.242767,
2.055,-0.194702,
2.0555,-0.12558,
2.056,-0.0312805,
2.0565,0.0848389,
2.057,0.159454,
2.0575,0.134583,
2.058,0.0386047,
2.0585,-0.0193787,
2.059,0.0192261,
2.0595,0.0793457,
2.06,0.0909424,
2.0605,0.102234,
2.061,0.145721,
2.0615,0.218048,
2.062,0.222778,
2.0625,0.133362,
2.063,0.0514221,
2.0635,-0.000457764,
2.064,-0.0253296,
2.0645,-0.0126648,
2.065,0.0189209,
2.0655,0.0624084,
2.066,0.0996399,
2.0665,0.0857544,
2.067,0.0132751,
2.0675,-0.0680542,
2.068,-0.0749207,
2.0685,-0.0254822,
2.069,0.00457764,
2.0695,-0.00564575,
2.07,-0.0422668,
2.0705,-0.0968933,
2.071,-0.135498,
2.0715,-0.137024,
2.072,-0.117798,
2.0725,-0.0895691,
2.073,-0.0468445,
2.0735,-0.020752,
2.074,-0.0474548,
2.0745,-0.100403,
2.075,-0.146942,
2.0755,-0.175323,
2.076,-0.178833,
2.0765,-0.139771,
2.077,-0.0627136,
2.0775,0.0175476,
2.078,0.0654602,
2.0785,0.0712585,
2.079,0.0517273,
2.0795,0.0401306,
2.08,0.0311279,
2.0805,0.0213623,
2.081,0.030365,
2.0815,0.0440979,
2.082,0.0450134,
2.0825,0.0570679,
2.083,0.115662,
2.0835,0.165253,
2.084,0.156403,
2.0845,0.110016,
2.085,0.0639343,
2.0855,0.0357056,
2.086,0.0299072,
2.0865,0.0480652,
2.087,0.0413513,
2.0875,0.0152588,
2.088,0.0241089,
2.0885,0.0622559,
2.089,0.0866699,
2.0895,0.0997925,
2.09,0.119171,
2.0905,0.126953,
2.091,0.114899,
2.0915,0.0764465,
2.092,0.0263977,
2.0925,-0.00244141,
2.093,-0.0346375,
2.0935,-0.115967,
2.094,-0.200348,
2.0945,-0.218964,
2.095,-0.188904,
2.0955,-0.166931,
2.096,-0.163269,
2.0965,-0.151672,
2.097,-0.129547,
2.0975,-0.106049,
2.098,-0.0849915,
2.0985,-0.0616455,
2.099,-0.0370789,
2.0995,-0.00869751,
2.1,0.00518799,
2.1005,-0.0553894,
2.101,-0.155945,
2.1015,-0.226135,
2.102,-0.261383,
2.1025,-0.269165,
2.103,-0.2565,
2.1035,-0.239716,
2.104,-0.237427,
2.1045,-0.181885,
2.105,0.0120544,
2.1055,0.219116,
2.106,0.265045,
2.1065,0.206299,
2.107,0.24826,
2.1075,0.362396,
2.108,0.378876,
2.1085,0.279083,
2.109,0.203094,
2.1095,0.145874,
2.11,0.0257874,
2.1105,-0.093689,
2.111,-0.11322,
2.1115,-0.0267029,
2.112,0.112762,
2.1125,0.174713,
2.113,0.118561,
2.1135,0.085907,
2.114,0.104675,
2.1145,0.108185,
2.115,0.0900269,
2.1155,0.0553894,
2.116,0.0196838,
2.1165,-0.0115967,
2.117,-0.0483704,
2.1175,-0.100098,
2.118,-0.161743,
2.1185,-0.237274,
2.119,-0.298615,
2.1195,-0.313873,
2.12,-0.299225,
2.1205,-0.246582,
2.121,-0.0788879,
2.1215,0.162506,
2.122,0.31311,
2.1225,0.266724,
2.123,0.126648,
2.1235,0.0491333,
2.124,0.00686646,
2.1245,-0.0695801,
2.125,-0.148926,
2.1255,-0.214996,
2.126,-0.263977,
2.1265,-0.290375,
2.127,-0.302734,
2.1275,-0.319519,
2.128,-0.279694,
2.1285,-0.177307,
2.129,-0.113373,
2.1295,-0.149994,
2.13,-0.133514,
2.1305,0.0941467,
2.131,0.378113,
2.1315,0.483856,
2.132,0.467224,
2.1325,0.435333,
2.133,0.379639,
2.1335,0.322723,
2.134,0.280609,
2.1345,0.229034,
2.135,0.0894165,
2.1355,-0.0790405,
2.136,-0.0990295,
2.1365,0.00869751,
2.137,0.083313,
2.1375,0.0791931,
2.138,0.0326538,
2.1385,-0.00396729,
2.139,0.0326538,
2.1395,0.122375,
2.14,0.185699,
2.1405,0.205231,
2.141,0.20462,
2.1415,0.201263,
2.142,0.23056,
2.1425,0.277405,
2.143,0.272369,
2.1435,0.171356,
2.144,0.0268555,
2.1445,-0.104065,
2.145,-0.204315,
2.1455,-0.250549,
2.146,-0.249786,
2.1465,-0.224152,
2.147,-0.165253,
2.1475,-0.0946045,
2.148,-0.0292969,
2.1485,0.0733948,
2.149,0.207825,
2.1495,0.22644,
2.15,0.106964,
2.1505,0.00549316,
2.151,-0.0241089,
2.1515,-0.0340271,
2.152,-0.0663757,
2.1525,-0.0990295,
2.153,-0.0990295,
2.1535,-0.0857544,
2.154,-0.0849915,
2.1545,-0.0848389,
2.155,-0.0753784,
2.1555,-0.0822449,
2.156,-0.0944519,
2.1565,-0.0738525,
2.157,-0.0192261,
2.1575,0.0209045,
2.158,0.015564,
2.1585,-0.0254822,
2.159,-0.0918579,
2.1595,-0.140228,
2.16,-0.128326,
2.1605,-0.10849,
2.161,-0.121307,
2.1615,-0.142822,
2.162,-0.142975,
2.1625,-0.127411,
2.163,-0.0917053,
2.1635,-0.0753784,
2.164,-0.0950623,
2.1645,-0.087738,
2.165,-0.037384,
2.1655,-0.00366211,
2.166,-0.0132751,
2.1665,-0.0434875,
2.167,-0.0550842,
2.1675,-0.0379944,
2.168,0.00427246,
2.1685,0.0328064,
2.169,0.0106812,
2.1695,-0.0141907,
2.17,-0.0111389,
2.1705,-0.00717163,
2.171,-0.0175476,
2.1715,-0.0135803,
2.172,0.0137329,
2.1725,0.0222778,
2.173,0.00854492,
2.1735,-0.00427246,
2.174,-0.0141907,
2.1745,-0.0247192,
2.175,-0.0306702,
2.1755,-0.0476074,
2.176,-0.0679016,
2.1765,-0.0767517,
2.177,-0.0827026,
2.1775,-0.0708008,
2.178,-0.0613403,
2.1785,-0.0810242,
2.179,-0.0765991,
2.1795,-0.0102234,
2.18,0.0494385,
2.1805,0.0416565,
2.181,0.0114441,
2.1815,0.0106812,
2.182,0.0109863,
2.1825,-0.022583,
2.183,-0.0543213,
2.1835,-0.0556946,
2.184,-0.0395203,
2.1845,-0.0276184,
2.185,0.0108337,
2.1855,0.0668335,
2.186,0.0924683,
2.1865,0.085144,
2.187,0.0442505,
2.1875,-0.022583,
2.188,-0.032959,
2.1885,0.0430298,
2.189,0.0866699,
2.1895,0.0566101,
2.19,0.0474548,
2.1905,0.0593567,
2.191,0.032959,
2.1915,-0.00915527,
2.192,-0.0231934,
2.1925,-0.00396729,
2.193,0.0128174,
2.1935,0.0271606,
2.194,0.0378418,
2.1945,0.0389099,
2.195,0.0386047,
2.1955,0.0468445,
2.196,0.0500488,
2.1965,0.0309753,
2.197,0.0213623,
2.1975,0.0276184,
2.198,0.0311279,
2.1985,0.00534058,
2.199,-0.0466919,
2.1995,-0.0793457,
2.2,-0.0770569,
2.2005,-0.059967,
2.201,-0.0524902,
2.2015,-0.0784302,
2.202,-0.144501,
2.2025,-0.195923,
2.203,-0.189972,
2.2035,-0.140381,
2.204,-0.112152,
2.2045,-0.0997925,
2.205,0.0395203,
2.2055,0.2771,
2.206,0.393066,
2.2065,0.315704,
2.207,0.173798,
2.2075,0.107727,
2.208,0.104828,
2.2085,0.118256,
2.209,0.109863,
2.2095,0.0765991,
2.21,0.0619507,
2.2105,0.0587463,
2.211,0.0500488,
2.2115,0.042572,
2.212,0.0212097,
2.2125,-0.0038147,
2.213,-0.0144958,
2.2135,-0.0309753,
2.214,-0.0549316,
2.2145,-0.0570679,
2.215,-0.0341797,
2.2155,-0.00411987,
2.216,0.00274658,
2.2165,-0.0234985,
2.217,-0.0442505,
2.2175,-0.0413513,
2.218,-0.0273132,
2.2185,-0.0151062,
2.219,-0.00823975,
2.2195,-0.0190735,
2.22,-0.0518799,
2.2205,-0.0920105,
2.221,-0.121307,
2.2215,-0.150146,
2.222,-0.189209,
2.2225,-0.197144,
2.223,-0.113831,
2.2235,0.0115967,
2.224,0.0863647,
2.2245,0.121307,
2.225,0.164795,
2.2255,0.195923,
2.226,0.171661,
2.2265,0.114441,
2.227,0.0912476,
2.2275,0.0779724,
2.228,0.042572,
2.2285,-0.00274658,
2.229,-0.0289917,
2.2295,-0.0492859,
2.23,-0.088501,
2.2305,-0.110779,
2.231,-0.0515747,
2.2315,0.0137329,
2.232,-0.0062561,
2.2325,-0.0337219,
2.233,0.00579834,
2.2335,0.0839233,
2.234,0.116882,
2.2345,0.10376,
2.235,0.102844,
2.2355,0.092926,
2.236,0.0595093,
2.2365,0.0241089,
2.237,0.017395,
2.2375,0.00228882,
2.238,-0.0424194,
2.2385,-0.0939941,
2.239,-0.117645,
2.2395,-0.11261,
2.24,-0.105591,
2.2405,-0.103455,
2.241,-0.0912476,
2.2415,-0.0540161,
2.242,0.00198364,
2.2425,0.0463867,
2.243,0.0553894,
2.2435,0.0506592,
2.244,0.0808716,
2.2445,0.109406,
2.245,0.0907898,
2.2455,0.040741,
2.246,-0.0106812,
2.2465,-0.0527954,
2.247,-0.0799561,
2.2475,-0.0534058,
2.248,-0.0152588,
2.2485,0.000762939,
2.249,0.0144958,
2.2495,0.00778198,
2.25,-0.0134277,
2.2505,-0.0215149,
2.251,-0.0335693,
2.2515,-0.0456238,
2.252,0.00137329,
2.2525,0.0520325,
2.253,0.0447083,
2.2535,0.0152588,
2.254,-0.0125122,
2.2545,-0.0247192,
2.255,-0.0312805,
2.2555,-0.0488281,
2.256,-0.0511169,
2.2565,-0.0491333,
2.257,-0.0386047,
2.2575,-0.0137329,
2.258,-0.000305176,
2.2585,-0.00564575,
2.259,-0.0178528,
2.2595,-0.040741,
2.26,-0.0686646,
2.2605,-0.0834656,
2.261,-0.0822449,
2.2615,-0.065155,
2.262,-0.0358582,
2.2625,-0.0149536,
2.263,0.00854492,
2.2635,0.0263977,
2.264,0.00274658,
2.2645,-0.04776,
2.265,-0.0634766,
2.2655,-0.00640869,
2.266,0.0621033,
2.2665,0.0630188,
2.267,0.0164795,
2.2675,-0.0305176,
2.268,-0.0454712,
2.2685,-0.0328064,
2.269,-0.0088501,
2.2695,-0.00183105,
2.27,-0.0228882,
2.2705,-0.0411987,
2.271,-0.0704956,
2.2715,-0.149994,
2.272,-0.262909,
2.2725,-0.356293,
2.273,-0.390167,
2.2735,-0.365601,
2.274,-0.309906,
2.2745,-0.217285,
2.275,-0.0396729,
2.2755,0.179443,
2.276,0.344086,
2.2765,0.429993,
2.277,0.449219,
2.2775,0.372314,
2.278,0.240936,
2.2785,0.183868,
2.279,0.234222,
2.2795,0.244598,
2.28,0.144501,
2.2805,0.0379944,
2.281,-0.0114441,
2.2815,-0.0396729,
2.282,-0.0662231,
2.2825,-0.0634766,
2.283,-0.0254822,
2.2835,0.0111389,
2.284,-0.0183105,
2.2845,-0.0758362,
2.285,-0.045166,
2.2855,0.0306702,
2.286,0.0605774,
2.2865,0.065918,
2.287,0.0593567,
2.2875,0.0527954,
2.288,0.0553894,
2.2885,0.0524902,
2.289,0.0204468,
2.2895,-0.0260925,
2.29,-0.0668335,
2.2905,-0.101318,
2.291,-0.123596,
2.2915,-0.127869,
2.292,-0.126038,
2.2925,-0.123596,
2.293,-0.0802612,
2.2935,0.0183105,
2.294,0.137787,
2.2945,0.225525,
2.295,0.230103,
2.2955,0.157166,
2.296,0.0628662,
2.2965,-0.0334167,
2.297,-0.0808716,
2.2975,-0.0692749,
2.298,-0.104218,
2.2985,-0.195313,
2.299,-0.195313,
2.2995,-0.0382996,
2.3,0.0979614,
2.3005,0.0741577,
2.301,-0.0233459,
2.3015,-0.0874329,
2.302,-0.0396729,
2.3025,0.114288,
2.303,0.161743,
2.3035,0.0526428,
2.304,-0.0816345,
2.3045,-0.148773,
2.305,-0.15274,
2.3055,-0.132599,
2.306,-0.114136,
2.3065,-0.087738,
2.307,0.0332642,
2.3075,0.193787,
2.308,0.241699,
2.3085,0.163879,
2.309,0.0360107,
2.3095,-0.0866699,
2.31,-0.169525,
2.3105,-0.217133,
2.311,-0.200195,
2.3115,-0.0428772,
2.312,0.144043,
2.3125,0.190735,
2.313,0.126953,
2.3135,0.0553894,
2.314,-0.0474548,
2.3145,-0.153809,
2.315,-0.205688,
2.3155,-0.255127,
2.316,-0.303497,
2.3165,-0.222778,
2.317,-0.0105286,
2.3175,0.157471,
2.318,0.203247,
2.3185,0.187836,
2.319,0.164948,
2.3195,0.168457,
2.32,0.228424,
2.3205,0.292053,
2.321,0.264435,
2.3215,0.163574,
2.322,0.0689697,
2.3225,-0.0178528,
2.323,-0.0985718,
2.3235,-0.103455,
2.324,-0.0549316,
2.3245,0.000457764,
2.325,0.0750732,
2.3255,0.141602,
2.326,0.160828,
2.3265,0.144501,
2.327,0.137482,
2.3275,0.166931,
2.328,0.187073,
2.3285,0.13504,
2.329,0.0447083,
2.3295,-0.0422668,
2.33,-0.130157,
2.3305,-0.193481,
2.331,-0.190887,
2.3315,-0.140839,
2.332,-0.100708,
2.3325,-0.057373,
2.333,0.065918,
2.3335,0.177765,
2.334,0.133514,
2.3345,0.015564,
2.335,-0.059967,
2.3355,-0.0987244,
2.336,-0.147705,
2.3365,-0.22995,
2.337,-0.318604,
2.3375,-0.355988,
2.338,-0.312195,
2.3385,-0.221252,
2.339,-0.145874,
2.3395,-0.137787,
2.34,-0.0602722,
2.3405,0.174408,
2.341,0.380859,
2.3415,0.390778,
2.342,0.278931,
2.3425,0.1828,
2.343,0.115814,
2.3435,0.0282288,
2.344,-0.0628662,
2.3445,-0.0881958,
2.345,-0.0537109,
2.3455,-0.0132751,
2.346,0.0183105,
2.3465,0.0227356,
2.347,-0.00106812,
2.3475,-0.00991821,
2.348,0.0160217,
2.3485,0.0160217,
2.349,-0.00228882,
2.3495,0.00411987,
2.35,0.00213623,
2.3505,-0.00823975,
2.351,0.015564,
2.3515,0.0247192,
2.352,0.0320435,
2.3525,0.0398254,
2.353,-0.00610352,
2.3535,-0.0527954,
2.354,-0.0511169,
2.3545,-0.0471497,
2.355,-0.0546265,
2.3555,-0.0675964,
2.356,-0.098114,
2.3565,-0.146027,
2.357,-0.198975,
2.3575,-0.24826,
2.358,-0.28244,
2.3585,-0.278168,
2.359,-0.288239,
2.3595,-0.326538,
2.36,-0.269012,
2.3605,-0.0965881,
2.361,0.0233459,
2.3615,0.0245667,
2.362,-0.0404358,
2.3625,-0.0898743,
2.363,-0.102997,
2.3635,-0.10437,
2.364,-0.0819397,
2.3645,0.0134277,
2.365,0.116577,
2.3655,0.0814819,
2.366,-0.0198364,
2.3665,-0.0593567,
2.367,-0.0273132,
2.3675,-0.00869751,
2.368,-0.0691223,
2.3685,-0.19989,
2.369,-0.318451,
2.3695,-0.335388,
2.37,-0.218811,
2.3705,0.0234985,
2.371,0.306396,
2.3715,0.456543,
2.372,0.426636,
2.3725,0.328674,
2.373,0.212402,
2.3735,0.0442505,
2.374,-0.0309753,
2.3745,0.0897217,
2.375,0.238953,
2.3755,0.339355,
2.376,0.445709,
2.3765,0.48233,
2.377,0.403748,
2.3775,0.303192,
2.378,0.207062,
2.3785,0.111542,
2.379,0.0234985,
2.3795,-0.078125,
2.38,-0.137329,
2.3805,-0.130615,
2.381,-0.172577,
2.3815,-0.285034,
2.382,-0.35553,
2.3825,-0.335693,
2.383,-0.235291,
2.3835,-0.154266,
2.384,-0.130157,
2.3845,-0.168915,
2.385,-0.250854,
2.3855,-0.314178,
2.386,-0.320892,
2.3865,-0.27832,
2.387,-0.220337,
2.3875,-0.244751,
2.388,-0.43045,
2.3885,-0.710754,
2.389,-0.94986,
2.3895,-1.03622,
2.39,-0.871735,
2.3905,-0.423584,
2.391,0.187836,
2.3915,0.681915,
2.392,0.776367,
2.3925,0.40863,
2.393,-0.125885,
2.3935,-0.441132,
2.394,-0.387115,
2.3945,0.0312805,
2.395,0.547791,
2.3955,0.820618,
2.396,0.816193,
2.3965,0.686646,
2.397,0.510864,
2.3975,0.4422,
2.398,0.517273,
2.3985,0.651245,
2.399,0.8078,
2.3995,0.855103,
2.4,0.748444,
2.4005,0.61142,
2.401,0.457306,
2.4015,0.305634,
2.402,0.184479,
2.4025,0.137024,
2.403,0.21637,
2.4035,0.318604,
2.404,0.319672,
2.4045,0.217438,
2.405,0.0543213,
2.4055,-0.115509,
2.406,-0.232391,
2.4065,-0.277252,
2.407,-0.255585,
2.4075,-0.168762,
2.408,-0.0706482,
2.4085,-0.0494385,
2.409,-0.169525,
2.4095,-0.379639,
2.41,-0.519409,
2.4105,-0.573425,
2.411,-0.537415,
2.4115,-0.385132,
2.412,-0.158997,
2.4125,0.085907,
2.413,0.299377,
2.4135,0.372772,
2.414,0.302124,
2.4145,0.249786,
2.415,0.235291,
2.4155,0.205231,
2.416,0.158997,
2.4165,0.0505066,
2.417,-0.212402,
2.4175,-0.557098,
2.418,-0.782318,
2.4185,-0.854492,
2.419,-0.821381,
2.4195,-0.825958,
2.42,-0.933838,
2.4205,-0.899048,
2.421,-0.768433,
2.4215,-0.875244,
2.422,-1.11816,
2.4225,-1.11038,
2.423,-0.723572,
2.4235,0.00152588,
2.424,0.855255,
2.4245,1.32156,
2.425,1.29913,
2.4255,1.06201,
2.426,0.821228,
2.4265,0.709991,
2.427,0.682983,
2.4275,0.623169,
2.428,0.594177,
2.4285,0.661316,
2.429,0.691071,
2.4295,0.625916,
2.43,0.531616,
2.4305,0.445099,
2.431,0.392609,
2.4315,0.330048,
2.432,0.202789,
2.4325,0.10025,
2.433,0.108795,
2.4335,0.15152,
2.434,0.119171,
2.4345,0.0653076,
2.435,0.0369263,
2.4355,-0.0177002,
2.436,-0.083313,
2.4365,-0.100861,
2.437,-0.0871277,
2.4375,-0.0642395,
2.438,-0.0804138,
2.4385,-0.133209,
2.439,-0.186157,
2.4395,-0.21347,
2.44,-0.174408,
2.4405,-0.0650024,
2.441,0.0259399,
2.4415,0.00732422,
2.442,-0.080719,
2.4425,-0.132599,
2.443,-0.132294,
2.4435,-0.109863,
2.444,-0.0856018,
2.4445,-0.0653076,
2.445,-0.0488281,
2.4455,-0.0517273,
2.446,-0.0628662,
2.4465,-0.0794983,
2.447,-0.124512,
2.4475,-0.173035,
2.448,-0.209045,
2.4485,-0.231018,
2.449,-0.245819,
2.4495,-0.248566,
2.45,-0.22995,
2.4505,-0.215454,
2.451,-0.231628,
2.4515,-0.286407,
2.452,-0.311279,
2.4525,-0.285645,
2.453,-0.256348,
2.4535,-0.189056,
2.454,-0.106812,
2.4545,-0.0883484,
2.455,-0.057373,
2.4555,0.0038147,
2.456,-0.04776,
2.4565,-0.19989,
2.457,-0.30365,
2.4575,-0.338593,
2.458,-0.331879,
2.4585,-0.274353,
2.459,-0.184784,
2.4595,-0.117035,
2.46,-0.055542,
2.4605,0.0331116,
2.461,0.166931,
2.4615,0.282898,
2.462,0.272827,
2.4625,0.173798,
2.463,0.108795,
2.4635,0.153961,
2.464,0.288696,
2.4645,0.383911,
2.465,0.336761,
2.4655,0.194244,
2.466,0.0871277,
2.4665,0.0512695,
2.467,0.0352478,
2.4675,0.017395,
2.468,0.0111389,
2.4685,0.0254822,
2.469,0.0308228,
2.4695,-0.00915527,
2.47,-0.0601196,
2.4705,-0.0830078,
2.471,-0.083313,
2.4715,-0.102234,
2.472,-0.124664,
2.4725,-0.0874329,
2.473,0.0170898,
2.4735,0.116882,
2.474,0.10025,
2.4745,0.0170898,
2.475,-0.0314331,
2.4755,-0.0442505,
2.476,-0.0653076,
2.4765,-0.0823975,
2.477,-0.0819397,
2.4775,-0.0839233,
2.478,-0.0865173,
2.4785,-0.0605774,
2.479,-0.0177002,
2.4795,-0.00244141,
2.48,-0.018158,
2.4805,-0.0621033,
2.481,-0.122986,
2.4815,-0.21225,
2.482,-0.283508,
2.4825,-0.292511,
2.483,-0.256958,
2.4835,-0.187073,
2.484,-0.0773621,
2.4845,0.0444031,
2.485,0.106964,
2.4855,0.115051,
2.486,0.134125,
2.4865,0.173798,
2.487,0.190582,
2.4875,0.15686,
2.488,0.0891113,
2.4885,-0.00198364,
2.489,-0.0942993,
2.4895,-0.154877,
2.49,-0.148926,
2.4905,-0.0834656,
2.491,0.00701904,
2.4915,0.0561523,
2.492,0.0454712,
2.4925,0.0288391,
2.493,0.037384,
2.4935,0.0297546,
2.494,-0.0195313,
2.4945,-0.0601196,
2.495,-0.0352478,
2.4955,0.0146484,
2.496,0.0630188,
2.4965,0.140991,
2.497,0.193024,
2.4975,0.161285,
2.498,0.108795,
2.4985,0.0952148,
2.499,0.103607,
2.4995,0.0975037,
2.5,0.078125,
2.5005,0.032196,
2.501,-0.0401306,
2.5015,-0.10025,
2.502,-0.158691,
2.5025,-0.248871,
2.503,-0.324402,
2.5035,-0.322571,
2.504,-0.222473,
2.5045,-0.128479,
2.505,-0.0556946,
2.5055,0.0645447,
2.506,0.146484,
2.5065,0.0868225,
2.507,-0.00823975,
2.5075,0.0117493,
2.508,0.0946045,
2.5085,0.118713,
2.509,0.113678,
2.5095,0.168152,
2.51,0.221558,
2.5105,0.205078,
2.511,0.166473,
2.5115,0.13504,
2.512,0.115051,
2.5125,0.0953674,
2.513,0.0933838,
2.5135,0.141602,
2.514,0.2034,
2.5145,0.204315,
2.515,0.126648,
2.5155,0.0300598,
2.516,-0.00549316,
2.5165,0.00274658,
2.517,0.0117493,
2.5175,0.0146484,
2.518,0.0209045,
2.5185,0.0343323,
2.519,0.0325012,
2.5195,0.0219727,
2.52,0.0170898,
2.5205,-0.00137329,
2.521,-0.0302124,
2.5215,-0.0541687,
2.522,-0.0689697,
2.5225,-0.0817871,
2.523,-0.0726318,
2.5235,-0.0354004,
2.524,-0.0473022,
2.5245,-0.168457,
2.525,-0.343781,
2.5255,-0.500488,
2.526,-0.56778,
2.5265,-0.477448,
2.527,-0.208588,
2.5275,0.172272,
2.528,0.496521,
2.5285,0.572662,
2.529,0.444794,
2.5295,0.329132,
2.53,0.308228,
2.5305,0.304565,
2.531,0.256805,
2.5315,0.188293,
2.532,0.134735,
2.5325,0.0834656,
2.533,0.0254822,
2.5335,-0.0175476,
2.534,-0.0184631,
2.5345,0.0108337,
2.535,0.000915527,
2.5355,-0.0546265,
2.536,-0.0897217,
2.5365,-0.0772095,
2.537,-0.0611877,
2.5375,-0.052948,
2.538,-0.0717163,
2.5385,-0.0985718,
2.539,-0.0849915,
2.5395,-0.0556946,
2.54,-0.0437927,
2.5405,-0.0352478,
2.541,-0.0285339,
2.5415,-0.0401306,
2.542,-0.057373,
2.5425,-0.0617981,
2.543,-0.0524902,
2.5435,-0.0552368,
2.544,-0.0614929,
2.5445,-0.0447083,
2.545,-0.0271606,
2.5455,-0.0216675,
2.546,-0.00228882,
2.5465,0.0157166,
2.547,0.00244141,
2.5475,-0.0209045,
2.548,-0.0233459,
2.5485,-0.0231934,
2.549,-0.0163269,
2.5495,-0.0160217,
2.55,-0.0688171,
2.5505,-0.179749,
2.551,-0.257721,
2.5515,-0.241394,
2.552,-0.1651,
2.5525,-0.101471,
2.553,-0.0610352,
2.5535,-0.000457764,
2.554,0.0558472,
2.5545,0.0445557,
2.555,0.00778198,
2.5555,0.00961304,
2.556,0.0308228,
2.5565,0.0440979,
2.557,0.0436401,
2.5575,0.039978,
2.558,0.032196,
2.5585,0.00930786,
2.559,-0.0218201,
2.5595,-0.0466919,
2.56,-0.0567627,
2.5605,-0.0547791,
2.561,-0.0306702,
2.5615,0.0102234,
2.562,0.0648499,
2.5625,0.0875854,
2.563,0.0120544,
2.5635,-0.0923157,
2.564,-0.128479,
2.5645,-0.133514,
2.565,-0.185547,
2.5655,-0.254059,
2.566,-0.252838,
2.5665,-0.215454,
2.567,-0.224609,
2.5675,-0.21759,
2.568,-0.0668335,
2.5685,0.203552,
2.569,0.364685,
2.5695,0.288696,
2.57,0.150146,
2.5705,0.118561,
2.571,0.170593,
2.5715,0.203857,
2.572,0.188141,
2.5725,0.152893,
2.573,0.110168,
2.5735,0.0691223,
2.574,0.0344849,
2.5745,0.00946045,
2.575,0.0114441,
2.5755,0.0160217,
2.576,-0.0126648,
2.5765,-0.055542,
2.577,-0.0805664,
2.5775,-0.0914001,
2.578,-0.0883484,
2.5785,-0.0674438,
2.579,-0.00442505,
2.5795,0.0744629,
2.58,0.0520325,
2.5805,-0.0802612,
2.581,-0.181427,
2.5815,-0.179596,
2.582,-0.122833,
2.5825,-0.0761414,
2.583,-0.0138855,
2.5835,0.0421143,
2.584,0.0776672,
2.5845,0.142822,
2.585,0.218353,
2.5855,0.218811,
2.586,0.155029,
2.5865,0.101624,
2.587,0.0778198,
2.5875,0.067749,
2.588,0.0416565,
2.5885,-0.0180054,
2.589,-0.0473022,
2.5895,-0.0268555,
2.59,-0.00213623,
2.5905,0.0102234,
2.591,0.0164795,
2.5915,0.0276184,
2.592,0.0213623,
2.5925,-0.0157166,
2.593,-0.0393677,
2.5935,-0.0508118,
2.594,-0.0672913,
2.5945,-0.0662231,
2.595,-0.0585938,
2.5955,-0.0834656,
2.596,-0.0958252,
2.5965,0.0111389,
2.597,0.159912,
2.5975,0.173798,
2.598,0.0970459,
2.5985,0.0614929,
2.599,0.0642395,
2.5995,0.0219727,
2.6,-0.0500488,
2.6005,-0.0836182,
2.601,-0.107117,
2.6015,-0.149841,
2.602,-0.19928,
2.6025,-0.227966,
2.603,-0.193176,
2.6035,-0.0909424,
2.604,0.0930786,
2.6045,0.310364,
2.605,0.383911,
2.6055,0.266571,
2.606,0.0550842,
2.6065,-0.120087,
2.607,-0.210266,
2.6075,-0.232697,
2.608,-0.207062,
2.6085,-0.130463,
2.609,0.00900269,
2.6095,0.141144,
2.61,0.155945,
2.6105,0.0987244,
2.611,0.0828552,
2.6115,0.115051,
2.612,0.155945,
2.6125,0.162506,
2.613,0.109253,
2.6135,0.0408936,
2.614,0.0152588,
2.6145,0.0201416,
2.615,0.00869751,
2.6155,-0.0259399,
2.616,-0.058136,
2.6165,-0.0669861,
2.617,-0.0511169,
2.6175,-0.032196,
2.618,-0.0312805,
2.6185,-0.0541687,
2.619,-0.106812,
2.6195,-0.156708,
2.62,-0.173035,
2.6205,-0.155487,
2.621,-0.132446,
2.6215,-0.0743103,
2.622,0.0358582,
2.6225,0.121307,
2.623,0.142975,
2.6235,0.10788,
2.624,0.0468445,
2.6245,0.0146484,
2.625,0.0163269,
2.6255,0.01297,
2.626,0.00976563,
2.6265,0.0115967,
2.627,0.0283813,
2.6275,0.0346375,
2.628,-0.00900269,
2.6285,-0.0854492,
2.629,-0.150299,
2.6295,-0.16861,
2.63,-0.14328,
2.6305,-0.0909424,
2.631,-0.00640869,
2.6315,0.0765991,
2.632,0.0843811,
2.6325,0.0360107,
2.633,0.00671387,
2.6335,0.00671387,
2.634,0.0288391,
2.6345,0.0514221,
2.635,0.0421143,
2.6355,-0.00335693,
2.636,-0.0616455,
2.6365,-0.0897217,
2.637,-0.0857544,
2.6375,-0.0891113,
2.638,-0.108032,
2.6385,-0.110779,
2.639,-0.0791931,
2.6395,-0.0675964,
2.64,-0.106049,
2.6405,-0.119476,
2.641,-0.0724792,
2.6415,-0.0143433,
2.642,0.0297546,
2.6425,0.0752258,
2.643,0.0895691,
2.6435,0.0892639,
2.644,0.12085,
2.6445,0.149689,
2.645,0.139313,
2.6455,0.110016,
2.646,0.0923157,
2.6465,0.0843811,
2.647,0.0714111,
2.6475,0.0610352,
2.648,0.0466919,
2.6485,0.0190735,
2.649,-0.0167847,
2.6495,-0.0450134,
2.65,-0.0482178,
2.6505,-0.0135803,
2.651,0.0257874,
2.6515,0.0482178,
2.652,0.0523376,
2.6525,0.0422668,
2.653,0.0306702,
2.6535,-0.019989,
2.654,-0.0865173,
2.6545,-0.112915,
2.655,-0.136261,
2.6555,-0.164948,
2.656,-0.152588,
2.6565,-0.0683594,
2.657,0.00595093,
2.6575,-0.0108337,
2.658,-0.0532532,
2.6585,-0.0630188,
2.659,-0.0593567,
2.6595,-0.0230408,
2.66,0.0421143,
2.6605,0.112305,
2.661,0.152893,
2.6615,0.168762,
2.662,0.177917,
2.6625,0.183716,
2.663,0.167847,
2.6635,0.0994873,
2.664,0.030365,
2.6645,0.0137329,
2.665,0.0119019,
2.6655,0.000610352,
2.666,-0.00244141,
2.6665,0.00686646,
2.667,0.0227356,
2.6675,0.0213623,
2.668,0.00366211,
2.6685,-0.0038147,
2.669,0,
2.6695,-0.0282288,
2.67,-0.0845337,
2.6705,-0.112,
2.671,-0.121002,
2.6715,-0.113831,
2.672,-0.0704956,
2.6725,-0.0102234,
2.673,0.0154114,
2.6735,0.00198364,
2.674,-0.00213623,
2.6745,0.00701904,
2.675,0.00457764,
2.6755,0.0123596,
2.676,0.025177,
2.6765,0.020752,
2.677,0.00259399,
2.6775,-0.0126648,
2.678,-0.0164795,
2.6785,-0.0157166,
2.679,-0.0213623,
2.6795,-0.0335693,
2.68,-0.0411987,
2.6805,-0.0384521,
2.681,-0.0274658,
2.6815,-0.0149536,
2.682,-0.00869751,
2.6825,-0.010376,
2.683,-0.0160217,
2.6835,-0.0289917,
2.684,-0.0505066,
2.6845,-0.0627136,
2.685,-0.0532532,
2.6855,-0.0180054,
2.686,0.035553,
2.6865,0.0845337,
2.687,0.098114,
2.6875,0.0639343,
2.688,0.0105286,
2.6885,-0.0140381,
2.689,0.00549316,
2.6895,0.0286865,
2.69,-0.00167847,
2.6905,-0.096283,
2.691,-0.192108,
2.6915,-0.204163,
2.692,-0.150909,
2.6925,-0.0840759,
2.693,-0.0115967,
2.6935,0.0566101,
2.694,0.11322,
2.6945,0.117188,
2.695,0.0697327,
2.6955,0.0392151,
2.696,0.0369263,
2.6965,0.0421143,
2.697,0.0482178,
2.6975,0.0469971,
2.698,0.0286865,
2.6985,0.00457764,
2.699,-0.00823975,
2.6995,-0.00350952,
2.7,0.00213623,
2.7005,0.00411987,
2.701,0.000305176,
2.7015,-0.00289917,
2.702,0.00427246,
2.7025,0.0126648,
2.703,-0.00427246,
2.7035,-0.0502014,
2.704,-0.0883484,
2.7045,-0.106659,
2.705,-0.118408,
2.7055,-0.116119,
2.706,-0.0669861,
2.7065,0.0112915,
2.707,0.0456238,
2.7075,0.0325012,
2.708,0.0286865,
2.7085,0.0584412,
2.709,0.0820923,
2.7095,0.0694275,
2.71,0.0363159,
2.7105,0.020752,
2.711,0.0221252,
2.7115,0.0189209,
2.712,0.0166321,
2.7125,0.0253296,
2.713,0.032196,
2.7135,0.0152588,
2.714,-0.0387573,
2.7145,-0.102081,
2.715,-0.151672,
2.7155,-0.190735,
2.716,-0.201416,
2.7165,-0.163879,
2.717,-0.178223,
2.7175,-0.307312,
2.718,-0.39505,
2.7185,-0.35141,
2.719,-0.248871,
2.7195,-0.15686,
2.72,-0.111847,
2.7205,-0.101013,
2.721,-0.101624,
2.7215,-0.0823975,
2.722,0.0483704,
2.7225,0.258026,
2.723,0.429382,
2.7235,0.525208,
2.724,0.529633,
2.7245,0.446472,
2.725,0.345001,
2.7255,0.276642,
2.726,0.235901,
2.7265,0.210114,
2.727,0.175629,
2.7275,0.107117,
2.728,0.0561523,
2.7285,0.0497437,
2.729,0.0454712,
2.7295,0.0315857,
2.73,0.0215149,
2.7305,0.015564,
2.731,0.0062561,
2.7315,-0.00137329,
2.732,-0.00549316,
2.7325,0.00167847,
2.733,0.0175476,
2.7335,0.0161743,
2.734,-0.00564575,
2.7345,-0.0276184,
2.735,-0.0384521,
2.7355,-0.0495911,
2.736,-0.0692749,
2.7365,-0.0819397,
2.737,-0.0740051,
2.7375,-0.0621033,
2.738,-0.0552368,
2.7385,-0.0434875,
2.739,-0.0344849,
2.7395,-0.0222778,
2.74,0.000915527,
2.7405,0.0131226,
2.741,-0.00274658,
2.7415,0.00762939,
2.742,0.0376892,
2.7425,0.0410461,
2.743,0.0331116,
2.7435,0.0254822,
2.744,0.00518799,
2.7445,-0.0332642,
2.745,-0.0741577,
2.7455,-0.0874329,
2.746,-0.0746155,
2.7465,-0.0743103,
2.747,-0.065155,
2.7475,-0.0541687,
2.748,-0.0740051,
2.7485,-0.0978088,
2.749,-0.0846863,
2.7495,-0.0463867,
2.75,-0.0205994,
2.7505,-0.0245667,
2.751,-0.0408936,
2.7515,-0.040741,
2.752,-0.0248718,
2.7525,-0.00869751,
2.753,0.00366211,
2.7535,0.0279236,
2.754,0.0547791,
2.7545,0.0411987,
2.755,-0.00442505,
2.7555,-0.0466919,
2.756,-0.0904846,
2.7565,-0.131683,
2.757,-0.119324,
2.7575,-0.0462341,
2.758,0.0177002,
2.7585,0.0360107,
2.759,0.039978,
2.7595,0.045929,
2.76,0.0550842,
2.7605,0.0712585,
2.761,0.0717163,
2.7615,0.0508118,
2.762,0.0198364,
2.7625,-0.0170898,
2.763,-0.050354,
2.7635,-0.0610352,
2.764,-0.0505066,
2.7645,-0.038147,
2.765,-0.0378418,
2.7655,-0.057373,
2.766,-0.108185,
2.7665,-0.172424,
2.767,-0.202332,
2.7675,-0.183258,
2.768,-0.130463,
2.7685,-0.0471497,
2.769,0.04776,
2.7695,0.0914001,
2.77,0.0679016,
2.7705,0.0506592,
2.771,0.0689697,
2.7715,0.0723267,
2.772,0.0491333,
2.7725,0.0341797,
2.773,0.0569153,
2.7735,0.0823975,
2.774,0.0689697,
2.7745,0.0434875,
2.775,0.0520325,
2.7755,0.0720215,
2.776,0.0653076,
2.7765,0.0527954,
2.777,0.0553894,
2.7775,0.065155,
2.778,0.0564575,
2.7785,0.0375366,
2.779,0.00747681,
2.7795,-0.063324,
2.78,-0.166626,
2.7805,-0.215607,
2.781,-0.177002,
2.7815,-0.110321,
2.782,-0.0511169,
2.7825,0.0100708,
2.783,0.0758362,
2.7835,0.105591,
2.784,0.0961304,
2.7845,0.0828552,
2.785,0.0756836,
2.7855,0.0598145,
2.786,0.050354,
2.7865,0.050354,
2.787,0.0450134,
2.7875,0.0318909,
2.788,0.0198364,
2.7885,0.0114441,
2.789,0.00427246,
2.7895,0.00183105,
2.79,0.000610352,
2.7905,-0.00274658,
2.791,-0.0038147,
2.7915,-0.00183105,
2.792,-0.00946045,
2.7925,-0.0408936,
2.793,-0.0643921,
2.7935,-0.0674438,
2.794,-0.062561,
2.7945,-0.0584412,
2.795,-0.0471497,
2.7955,-0.0177002,
2.796,0.0299072,
2.7965,0.0761414,
2.797,0.083313,
2.7975,0.0689697,
2.798,0.0666809,
2.7985,0.0636292,
2.799,0.0201416,
2.7995,-0.0572205,
2.8,-0.105438,
2.8005,-0.113068,
2.801,-0.103912,
2.8015,-0.090332,
2.802,-0.0549316,
2.8025,-0.0314331,
2.803,-0.0553894,
2.8035,-0.0448608,
2.804,0.0163269,
2.8045,0.0808716,
2.805,0.127716,
2.8055,0.118256,
2.806,0.0672913,
2.8065,0.0331116,
2.807,0.025177,
2.8075,0.0325012,
2.808,0.0305176,
2.8085,0.0164795,
2.809,-0.0012207,
2.8095,0.00137329,
2.81,0.0201416,
2.8105,0.0282288,
2.811,0.0309753,
2.8115,0.0311279,
2.812,0.00839233,
2.8125,-0.0123596,
2.813,-0.0102234,
2.8135,-0.0115967,
2.814,-0.0219727,
2.8145,-0.0297546,
2.815,-0.0334167,
2.8155,-0.0364685,
2.816,-0.0369263,
2.8165,-0.037384,
2.817,-0.0479126,
2.8175,-0.0602722,
2.818,-0.0639343,
2.8185,-0.0534058,
2.819,-0.0233459,
2.8195,0.0111389,
2.82,0.0202942,
2.8205,0.0123596,
2.821,0.0238037,
2.8215,0.0436401,
2.822,0.0341797,
2.8225,0.0274658,
2.823,0.0483704,
2.8235,0.0527954,
2.824,0.00106812,
2.8245,-0.0865173,
2.825,-0.146484,
2.8255,-0.161285,
2.826,-0.148926,
2.8265,-0.123138,
2.827,-0.0727844,
2.8275,-0.00671387,
2.828,0.0276184,
2.8285,0.0245667,
2.829,0.0158691,
2.8295,0.0222778,
2.83,0.0175476,
2.8305,-0.0219727,
2.831,-0.0810242,
2.8315,-0.159607,
2.832,-0.207062,
2.8325,-0.161591,
2.833,-0.0289917,
2.8335,0.136566,
2.834,0.218201,
2.8345,0.171051,
2.835,0.111694,
2.8355,0.123596,
2.836,0.161133,
2.8365,0.184479,
2.837,0.191193,
2.8375,0.168762,
2.838,0.114288,
2.8385,0.0387573,
2.839,-0.0332642,
2.8395,-0.0697327,
2.84,-0.0376892,
2.8405,0.00823975,
2.841,0.0143433,
2.8415,-0.00305176,
2.842,-0.00961304,
2.8425,-0.0160217,
2.843,-0.0325012,
2.8435,-0.0331116,
2.844,-0.0140381,
2.8445,0.00183105,
2.845,0.00869751,
2.8455,0.00534058,
2.846,-0.00350952,
2.8465,-0.0117493,
2.847,-0.0170898,
2.8475,-0.014801,
2.848,-0.00762939,
2.8485,-0.0038147,
2.849,-0.0186157,
2.8495,-0.0764465,
2.85,-0.157471,
2.8505,-0.206909,
2.851,-0.219574,
2.8515,-0.217133,
2.852,-0.180206,
2.8525,-0.0688171,
2.853,0.0695801,
2.8535,0.121613,
2.854,0.0906372,
2.8545,0.085144,
2.855,0.128326,
2.8555,0.155182,
2.856,0.116425,
2.8565,0.0442505,
2.857,-0.00289917,
2.8575,0.00747681,
2.858,0.0343323,
2.8585,0.0328064,
2.859,0.0106812,
2.8595,-0.00183105,
2.86,-0.000915527,
2.8605,-0.00411987,
2.861,-0.0216675,
2.8615,-0.0434875,
2.862,-0.0312805,
2.8625,0.0088501,
2.863,0.0228882,
2.8635,0.00732422,
2.864,-0.00656128,
2.8645,-0.0100708,
2.865,-0.0151062,
2.8655,-0.0219727,
2.866,-0.0263977,
2.8665,-0.020752,
2.867,-0.00961304,
2.8675,0.00244141,
2.868,0.00732422,
2.8685,0.0111389,
2.869,0.0204468,
2.8695,0.0263977,
2.87,0.0254822,
2.8705,0.0132751,
2.871,-0.00534058,
2.8715,-0.00778198,
2.872,0.00808716,
2.8725,0.0241089,
2.873,0.0297546,
2.8735,0.00946045,
2.874,-0.0184631,
2.8745,-0.0350952,
2.875,-0.0454712,
2.8755,-0.0485229,
2.876,-0.037384,
2.8765,-0.0154114,
2.877,-0.000610352,
2.8775,0.0119019,
2.878,0.0370789,
2.8785,0.0559998,
2.879,0.0585938,
2.8795,0.0598145,
2.88,0.062561,
2.8805,0.0552368,
2.881,0.0428772,
2.8815,0.0300598,
2.882,0.0151062,
2.8825,-0.00198364,
2.883,-0.0135803,
2.8835,-0.0192261,
2.884,-0.0285339,
2.8845,-0.0514221,
2.885,-0.120544,
2.8855,-0.26062,
2.886,-0.354614,
2.8865,-0.318909,
2.887,-0.222931,
2.8875,-0.143738,
2.888,-0.037384,
2.8885,0.0967407,
2.889,0.128021,
2.8895,0.0932312,
2.89,0.116119,
2.8905,0.159912,
2.891,0.147858,
2.8915,0.103607,
2.892,0.0804138,
2.8925,0.0714111,
2.893,0.0506592,
2.8935,0.0227356,
2.894,-0.000762939,
2.8945,-0.0253296,
2.895,-0.0448608,
2.8955,-0.043335,
2.896,-0.0294495,
2.8965,-0.0131226,
2.897,-0.00518799,
2.8975,-0.00579834,
2.898,0.000610352,
2.8985,0.0187683,
2.899,0.0312805,
2.8995,0.0270081,
2.9,0.014801,
2.9005,0.00595093,
2.901,0.00839233,
2.9015,0.0189209,
2.902,0.0328064,
2.9025,0.0473022,
2.903,0.0474548,
2.9035,0.0265503,
2.904,0.00793457,
2.9045,-0.000915527,
2.905,0.000915527,
2.9055,0.0306702,
2.906,0.052948,
2.9065,0.0502014,
2.907,0.0328064,
2.9075,0.0177002,
2.908,0.00595093,
2.9085,-0.00900269,
2.909,-0.0257874,
2.9095,-0.0396729,
2.91,-0.0413513,
2.9105,-0.0387573,
2.911,-0.0341797,
2.9115,-0.0260925,
2.912,-0.0143433,
2.9125,0.000152588,
2.913,0.0111389,
2.9135,0.00411987,
2.914,-0.015564,
2.9145,-0.0241089,
2.915,-0.00701904,
2.9155,0.00686646,
2.916,-0.0038147,
2.9165,-0.0192261,
2.917,-0.0488281,
2.9175,-0.0953674,
2.918,-0.141449,
2.9185,-0.163116,
2.919,-0.15976,
2.9195,-0.13855,
2.92,-0.0738525,
2.9205,0.030365,
2.921,0.0889587,
2.9215,0.0617981,
2.922,0.0259399,
2.9225,0.043335,
2.923,0.0762939,
2.9235,0.0804138,
2.924,0.0695801,
2.9245,0.0502014,
2.925,0.0274658,
2.9255,0.00549316,
2.926,-0.0233459,
2.9265,-0.0469971,
2.927,-0.0590515,
2.9275,-0.0671387,
2.928,-0.0646973,
2.9285,-0.0233459,
2.929,0.0738525,
2.9295,0.151672,
2.93,0.136108,
2.9305,0.0941467,
2.931,0.0898743,
2.9315,0.0964355,
2.932,0.101318,
2.9325,0.110626,
2.933,0.0939941,
2.9335,0.0549316,
2.934,0.0236511,
2.9345,0.00213623,
2.935,-0.0230408,
2.9355,-0.0488281,
2.936,-0.0444031,
2.9365,-0.0141907,
2.937,0.00671387,
2.9375,0.00259399,
2.938,-0.00396729,
2.9385,0.00106812,
2.939,0.00350952,
2.9395,0.000152588,
2.94,0.000610352,
2.9405,-0.00244141,
2.941,-0.010376,
2.9415,-0.0164795,
2.942,-0.0416565,
2.9425,-0.12558,
2.943,-0.233917,
2.9435,-0.296631,
2.944,-0.297089,
2.9445,-0.227356,
2.945,-0.119019,
2.9455,0.0140381,
2.946,0.144043,
2.9465,0.179901,
2.947,0.137024,
2.9475,0.122986,
2.948,0.135956,
2.9485,0.129547,
2.949,0.108032,
2.9495,0.0865173,
2.95,0.0498962,
2.9505,0.00839233,
2.951,-0.0131226,
2.9515,-0.00930786,
2.952,0.0050354,
2.9525,0.0158691,
2.953,0.00869751,
2.9535,-0.0323486,
2.954,-0.0958252,
2.9545,-0.125427,
2.955,-0.109863,
2.9555,-0.0794983,
2.956,-0.0413513,
2.9565,0.0175476,
2.957,0.0643921,
2.9575,0.0610352,
2.958,0.0445557,
2.9585,0.042572,
2.959,0.0260925,
2.9595,-0.012207,
2.96,-0.0305176,
2.9605,-0.0102234,
2.961,0.00396729,
2.9615,0.000610352,
2.962,0.0190735,
2.9625,0.0447083,
2.963,0.0387573,
2.9635,0.0192261,
2.964,0.00457764,
2.9645,-0.0164795,
2.965,-0.0366211,
2.9655,-0.0396729,
2.966,-0.0457764,
2.9665,-0.0543213,
2.967,-0.0372314,
2.9675,-0.00869751,
2.968,0.00244141,
2.9685,0.00579834,
2.969,0.00778198,
2.9695,0.0114441,
2.97,0.0038147,
2.9705,-0.0215149,
2.971,-0.0341797,
2.9715,-0.0302124,
2.972,-0.0254822,
2.9725,-0.0242615,
2.973,-0.0184631,
2.9735,-0.00457764,
2.974,0.00823975,
2.9745,0.0144958,
2.975,0.020752,
2.9755,0.0239563,
2.976,0.00640869,
2.9765,-0.0244141,
2.977,-0.0410461,
2.9775,-0.0337219,
2.978,-0.0248718,
2.9785,-0.0241089,
2.979,-0.018158,
2.9795,0.0190735,
2.98,0.0546265,
2.9805,0.0480652,
2.981,0.0294495,
2.9815,0.0491333,
2.982,0.0849915,
2.9825,0.0875854,
2.983,0.0656128,
2.9835,0.0292969,
2.984,-0.0363159,
2.9845,-0.122375,
2.985,-0.19043,
2.9855,-0.218353,
2.986,-0.218048,
2.9865,-0.189819,
2.987,-0.137024,
2.9875,-0.0941467,
2.988,-0.0733948,
2.9885,-0.0106812,
2.989,0.126648,
2.9895,0.237732,
2.99,0.240631,
2.9905,0.189056,
2.991,0.140991,
2.9915,0.0950623,
2.992,0.0396729,
2.9925,-0.022583,
2.993,-0.0918579,
2.9935,-0.159912,
2.994,-0.19989,
2.9945,-0.190277,
2.995,-0.149231,
2.9955,-0.0898743,
2.996,-0.00930786,
2.9965,0.0245667,
2.997,0.00595093,
2.9975,-0.00305176,
2.998,0.00946045,
2.9985,0.032959,
2.999,0.0440979,
2.9995,0.0268555,
3,-0.00549316,
3.0005,-0.0154114,
3.001,0.0422668,
3.0015,0.135651,
3.002,0.174255,
3.0025,0.148926,
3.003,0.11734,
3.0035,0.107727,
3.004,0.101318,
3.0045,0.0798035,
3.005,0.0506592,
3.0055,0.0248718,
3.006,0.00656128,
3.0065,0.00137329,
3.007,-0.00244141,
3.0075,0.00396729,
3.008,0.020752,
3.0085,0.0163269,
3.009,-0.0137329,
3.0095,-0.0495911,
3.01,-0.0595093,
3.0105,-0.0424194,
3.011,-0.0245667,
3.0115,-0.0325012,
3.012,-0.103912,
3.0125,-0.175781,
3.013,-0.179443,
3.0135,-0.16098,
3.014,-0.172272,
3.0145,-0.152893,
3.015,-0.0520325,
3.0155,0.0428772,
3.016,0.0546265,
3.0165,0.0588989,
3.017,0.123901,
3.0175,0.173492,
3.018,0.148773,
3.0185,0.125122,
3.019,0.131378,
3.0195,0.12085,
3.02,0.0819397,
3.0205,0.0476074,
3.021,0.0357056,
3.0215,0.0325012,
3.022,0.022583,
3.0225,-0.017395,
3.023,-0.0892639,
3.0235,-0.132294,
3.024,-0.119324,
3.0245,-0.0942993,
3.025,-0.0854492,
3.0255,-0.0643921,
3.026,-0.0201416,
3.0265,0.00946045,
3.027,0.00289917,
3.0275,0.0161743,
3.028,0.0631714,
3.0285,0.0753784,
3.029,0.0195313,
3.0295,-0.0524902,
3.03,-0.106964,
3.0305,-0.147247,
3.031,-0.166779,
3.0315,-0.140686,
3.032,-0.0827026,
3.0325,0.000305176,
3.033,0.0842285,
3.0335,0.119629,
3.034,0.108032,
3.0345,0.078125,
3.035,0.0215149,
3.0355,-0.032196,
3.036,-0.0294495,
3.0365,0.0309753,
3.037,0.0796509,
3.0375,0.0598145,
3.038,0.0170898,
3.0385,0.0180054,
3.039,0.0288391,
3.0395,0.00457764,
3.04,-0.0312805,
3.0405,-0.0428772,
3.041,-0.0442505,
3.0415,-0.0437927,
3.042,-0.0241089,
3.0425,0.00747681,
3.043,0.019989,
3.0435,0.0202942,
3.044,0.0418091,
3.0445,0.0552368,
3.045,0.0401306,
3.0455,0.0244141,
3.046,0.00793457,
3.0465,-0.0216675,
3.047,-0.0488281,
3.0475,-0.0344849,
3.048,0.019989,
3.0485,0.0639343,
3.049,0.0915527,
3.0495,0.129395,
3.05,0.153961,
3.0505,0.130768,
3.051,0.0601196,
3.0515,-0.0109863,
3.052,-0.0415039,
3.0525,-0.050354,
3.053,-0.0588989,
3.0535,-0.059967,
3.054,-0.0553894,
3.0545,-0.058136,
3.055,-0.0712585,
3.0555,-0.0759888,
3.056,-0.0534058,
3.0565,-0.00350952,
3.057,0.0422668,
3.0575,0.0428772,
3.058,0.00473022,
3.0585,-0.0273132,
3.059,-0.0286865,
3.0595,-0.0231934,
3.06,-0.0325012,
3.0605,-0.045166,
3.061,-0.0491333,
3.0615,-0.0506592,
3.062,-0.0686646,
3.0625,-0.0959778,
3.063,-0.10849,
3.0635,-0.100555,
3.064,-0.0857544,
3.0645,-0.067749,
3.065,-0.0175476,
3.0655,0.0540161,
3.066,0.0689697,
3.0665,0.0283813,
3.067,0.00335693,
3.0675,0.0161743,
3.068,0.0384521,
3.0685,0.0466919,
3.069,0.0494385,
3.0695,0.0463867,
3.07,0.0337219,
3.0705,0.020752,
3.071,0.010376,
3.0715,0.000152588,
3.072,-0.0144958,
3.0725,-0.0242615,
3.073,-0.0236511,
3.0735,-0.010376,
3.074,0.000762939,
3.0745,0.00137329,
3.075,-0.000915527,
3.0755,-0.000457764,
3.076,-0.000457764,
3.0765,0.00823975,
3.077,0.020752,
3.0775,0.0242615,
3.078,0.0160217,
3.0785,0.00762939,
3.079,-0.0012207,
3.0795,-0.0151062,
3.08,-0.0302124,
3.0805,-0.0415039,
3.081,-0.0460815,
3.0815,-0.0450134,
3.082,-0.0358582,
3.0825,-0.0268555,
3.083,-0.0230408,
3.0835,-0.0250244,
3.084,-0.0424194,
3.0845,-0.071106,
3.085,-0.0856018,
3.0855,-0.0753784,
3.086,-0.0498962,
3.0865,-0.0253296,
3.087,-0.00762939,
3.0875,0.00839233,
3.088,0.0164795,
3.0885,-0.0120544,
3.089,-0.0521851,
3.0895,-0.068512,
3.09,-0.0617981,
3.0905,-0.0285339,
3.091,0.03479,
3.0915,0.0828552,
3.092,0.0679016,
3.0925,0.0332642,
3.093,0.0402832,
3.0935,0.0567627,
3.094,0.0344849,
3.0945,-0.0184631,
3.095,-0.0453186,
3.0955,-0.0559998,
3.096,-0.0848389,
3.0965,-0.123596,
3.097,-0.118408,
3.0975,-0.098114,
3.098,-0.112457,
3.0985,-0.102234,
3.099,-0.00595093,
3.0995,0.139771,
3.1,0.23056,
3.1005,0.228119,
3.101,0.194092,
3.1015,0.174255,
3.102,0.161743,
3.1025,0.145874,
3.103,0.120392,
3.1035,0.0738525,
3.104,0.0302124,
3.1045,0.010376,
3.105,0.00823975,
3.1055,0.00717163,
3.106,0.00183105,
3.1065,-0.00442505,
3.107,-0.00930786,
3.1075,-0.01297,
3.108,-0.0184631,
3.1085,-0.0286865,
3.109,-0.0387573,
3.1095,-0.0306702,
3.11,-0.00213623,
3.1105,0.0160217,
3.111,0.0105286,
3.1115,0.0088501,
3.112,0.0158691,
3.1125,0.0114441,
3.113,-0.00549316,
3.1135,-0.0195313,
3.114,-0.035553,
3.1145,-0.0553894,
3.115,-0.0674438,
3.1155,-0.0505066,
3.116,-0.0154114,
3.1165,0.00442505,
3.117,0.00411987,
3.1175,0.00534058,
3.118,0.00930786,
3.1185,0.0157166,
3.119,0.0105286,
3.1195,-0.0152588,
3.12,-0.0527954,
3.1205,-0.078125,
3.121,-0.0942993,
3.1215,-0.110931,
3.122,-0.118256,
3.1225,-0.0842285,
3.123,0.00686646,
3.1235,0.078125,
3.124,0.0456238,
3.1245,-0.0245667,
3.125,-0.050354,
3.1255,-0.0352478,
3.126,-0.00701904,
3.1265,0.0370789,
3.127,0.0762939,
3.1275,0.0634766,
3.128,0.0334167,
3.1285,0.050354,
3.129,0.0862122,
3.1295,0.0874329,
3.13,0.0604248,
3.1305,0.0334167,
3.131,0.0160217,
3.1315,0.0109863,
3.132,0.0202942,
3.1325,0.0318909,
3.133,0.0352478,
3.1335,0.0239563,
3.134,-0.000915527,
3.1345,-0.0201416,
3.135,-0.0224304,
3.1355,-0.0167847,
3.136,-0.00366211,
3.1365,0.0106812,
3.137,0.0138855,
3.1375,0.0100708,
3.138,0.00823975,
3.1385,0.0131226,
3.139,0.019989,
3.1395,0.015564,
3.14,0.0102234,
3.1405,0.0158691,
3.141,0.0184631,
3.1415,0.00518799,
3.142,-0.0111389,
3.1425,-0.0233459,
3.143,-0.0364685,
3.1435,-0.0462341,
3.144,-0.0419617,
3.1445,-0.0241089,
3.145,0.000610352,
3.1455,0.0160217,
3.146,0.0216675,
3.1465,0.0273132,
3.147,0.0294495,
3.1475,0.0183105,
3.148,-0.00396729,
3.1485,-0.0219727,
3.149,-0.0283813,
3.1495,-0.0297546,
3.15,-0.030365,
3.1505,-0.0224304,
3.151,-0.0219727,
3.1515,-0.0418091,
3.152,-0.0627136,
3.1525,-0.0747681,
3.153,-0.0794983,
3.1535,-0.0662231,
3.154,-0.0671387,
3.1545,-0.0941467,
3.155,-0.0965881,
3.1555,-0.0732422,
3.156,-0.0544739,
3.1565,-0.0402832,
3.157,-0.0138855,
3.1575,0.0227356,
3.158,0.0376892,
3.1585,0.0227356,
3.159,-0.00518799,
3.1595,-0.0727844,
3.16,-0.160522,
3.1605,-0.198517,
3.161,-0.189362,
3.1615,-0.155945,
3.162,-0.0791931,
3.1625,0.039978,
3.163,0.130157,
3.1635,0.138397,
3.164,0.105438,
3.1645,0.0909424,
3.165,0.102386,
3.1655,0.127563,
3.166,0.146637,
3.1665,0.120697,
3.167,0.0570679,
3.1675,0.0210571,
3.168,0.0263977,
3.1685,0.0382996,
3.169,0.039978,
3.1695,0.0311279,
3.17,0.0115967,
3.1705,-0.0170898,
3.171,-0.0488281,
3.1715,-0.0740051,
3.172,-0.0862122,
3.1725,-0.083313,
3.173,-0.0672913,
3.1735,-0.0442505,
3.174,-0.012207,
3.1745,0.01297,
3.175,0.0100708,
3.1755,0.0132751,
3.176,0.0416565,
3.1765,0.0788879,
3.177,0.0843811,
3.1775,0.0456238,
3.178,0.00808716,
3.1785,-0.00442505,
3.179,-0.000305176,
3.1795,0.0163269,
3.18,0.03479,
3.1805,0.0361633,
3.181,0.022583,
3.1815,0.0109863,
3.182,0.0131226,
3.1825,0.0135803,
3.183,0.0038147,
3.1835,-0.00442505,
3.184,-0.00976563,
3.1845,-0.0268555,
3.185,-0.0520325,
3.1855,-0.0637817,
3.186,-0.0482178,
3.1865,-0.0180054,
3.187,-0.00442505,
3.1875,-0.0062561,
3.188,0.00335693,
3.1885,0.0112915,
3.189,-0.0062561,
3.1895,-0.0262451,
3.19,-0.0175476,
3.1905,0.00137329,
3.191,0.00259399,
3.1915,-0.00259399,
