0,-0.0088501,
0.0005,-0.0119019,
0.001,-0.0115967,
0.0015,-0.0117493,
0.002,-0.01297,
0.0025,-0.0109863,
0.003,-0.00656128,
0.0035,-0.0050354,
0.004,-0.00442505,
0.0045,-0.00244141,
0.005,-0.00198364,
0.0055,-0.00305176,
0.006,-0.00610352,
0.0065,-0.00991821,
0.007,-0.0105286,
0.0075,-0.00976563,
0.008,-0.0123596,
0.0085,-0.0146484,
0.009,-0.0134277,
0.0095,-0.0123596,
0.01,-0.0138855,
0.0105,-0.0117493,
0.011,-0.00839233,
0.0115,-0.00732422,
0.012,-0.00686646,
0.0125,-0.0062561,
0.013,-0.00579834,
0.0135,-0.00473022,
0.014,-0.0038147,
0.0145,-0.00213623,
0.015,-0.000457764,
0.0155,0.00183105,
0.016,0.00366211,
0.0165,0.00396729,
0.017,0.00534058,
0.0175,0.00823975,
0.018,0.0106812,
0.0185,0.0132751,
0.019,0.0157166,
0.0195,0.0163269,
0.02,0.0170898,
0.0205,0.018158,
0.021,0.0187683,
0.0215,0.0184631,
0.022,0.0178528,
0.0225,0.0186157,
0.023,0.0213623,
0.0235,0.0222778,
0.024,0.0192261,
0.0245,0.0140381,
0.025,0.0109863,
0.0255,0.0120544,
0.026,0.0146484,
0.0265,0.0128174,
0.027,0.0100708,
0.0275,0.00793457,
0.028,0.00579834,
0.0285,0.00335693,
0.029,0.000915527,
0.0295,-0.00228882,
0.03,-0.00610352,
0.0305,-0.00946045,
0.031,-0.0143433,
0.0315,-0.0180054,
0.032,-0.0209045,
0.0325,-0.020752,
0.033,-0.0221252,
0.0335,-0.0297546,
0.034,-0.0375366,
0.0345,-0.0398254,
0.035,-0.038147,
0.0355,-0.0364685,
0.036,-0.0337219,
0.0365,-0.0268555,
0.037,-0.0219727,
0.0375,-0.0205994,
0.038,-0.0201416,
0.0385,-0.0184631,
0.039,-0.012207,
0.0395,-0.00732422,
0.04,-0.00366211,
0.0405,-0.000762939,
0.041,0.00289917,
0.0415,0.00656128,
0.042,0.00961304,
0.0425,0.0106812,
0.043,0.012207,
0.0435,0.015564,
0.044,0.014801,
0.0445,0.012207,
0.045,0.0132751,
0.0455,0.0152588,
0.046,0.0149536,
0.0465,0.0117493,
0.047,0.0088501,
0.0475,0.0050354,
0.048,0.0012207,
0.0485,-0.00213623,
0.049,-0.00793457,
0.0495,-0.0138855,
0.05,-0.0189209,
0.0505,-0.0219727,
0.051,-0.0259399,
0.0515,-0.030365,
0.052,-0.032196,
0.0525,-0.0296021,
0.053,-0.0262451,
0.0535,-0.0244141,
0.054,-0.0244141,
0.0545,-0.0253296,
0.055,-0.0239563,
0.0555,-0.0212097,
0.056,-0.0189209,
0.0565,-0.0193787,
0.057,-0.0209045,
0.0575,-0.0224304,
0.058,-0.0216675,
0.0585,-0.020752,
0.059,-0.0196838,
0.0595,-0.0164795,
0.06,-0.014801,
0.0605,-0.0154114,
0.061,-0.0167847,
0.0615,-0.0186157,
0.062,-0.0201416,
0.0625,-0.0183105,
0.063,-0.0172424,
0.0635,-0.0154114,
0.064,-0.0106812,
0.0645,-0.00701904,
0.065,-0.00396729,
0.0655,-0.000762939,
0.066,0.00518799,
0.0665,0.00991821,
0.067,0.0111389,
0.0675,0.0143433,
0.068,0.0167847,
0.0685,0.0134277,
0.069,0.0132751,
0.0695,0.0151062,
0.07,0.0140381,
0.0705,0.0106812,
0.071,0.0115967,
0.0715,0.0132751,
0.072,0.0138855,
0.0725,0.0138855,
0.073,0.0137329,
0.0735,0.0170898,
0.074,0.019989,
0.0745,0.0210571,
0.075,0.0253296,
0.0755,0.0306702,
0.076,0.0306702,
0.0765,0.0282288,
0.077,0.0254822,
0.0775,0.0222778,
0.078,0.0204468,
0.0785,0.0219727,
0.079,0.0213623,
0.0795,0.0175476,
0.08,0.0149536,
0.0805,0.0131226,
0.081,0.0117493,
0.0815,0.0135803,
0.082,0.0125122,
0.0825,0.00823975,
0.083,0.00671387,
0.0835,0.0088501,
0.084,0.0102234,
0.0845,0.00930786,
0.085,0.00686646,
0.0855,0.00564575,
0.086,0.00473022,
0.0865,0.00335693,
0.087,0.000762939,
0.0875,0.000610352,
0.088,0.00152588,
0.0885,-0.000610352,
0.089,-0.00167847,
0.0895,-0.00106812,
0.09,-0.000915527,
0.0905,-0.00289917,
0.091,-0.00411987,
0.0915,-0.00366211,
0.092,-0.00549316,
0.0925,-0.00640869,
0.093,-0.0038147,
0.0935,-0.00152588,
0.094,-0.00213623,
0.0945,-0.00518799,
0.095,-0.00854492,
0.0955,-0.00900269,
0.096,-0.00762939,
0.0965,-0.0062561,
0.097,-0.00473022,
0.0975,-0.00442505,
0.098,-0.00549316,
0.0985,-0.00656128,
0.099,-0.00778198,
0.0995,-0.00823975,
0.1,-0.00686646,
0.1005,-0.00701904,
0.101,-0.0088501,
0.1015,-0.00915527,
0.102,-0.00869751,
0.1025,-0.0062561,
0.103,-0.00686646,
0.1035,-0.0109863,
0.104,-0.0132751,
0.1045,-0.01297,
0.105,-0.00823975,
0.1055,-0.00564575,
0.106,-0.00762939,
0.1065,-0.0088501,
0.107,-0.00732422,
0.1075,-0.00610352,
0.108,-0.00671387,
0.1085,-0.00900269,
0.109,-0.00701904,
0.1095,-0.00534058,
0.11,-0.00549316,
0.1105,-0.00366211,
0.111,-0.00183105,
0.1115,-0.0012207,
0.112,-0.00198364,
0.1125,-0.00305176,
0.113,-0.00457764,
0.1135,-0.00549316,
0.114,-0.00473022,
0.1145,-0.00564575,
0.115,-0.00686646,
0.1155,-0.00411987,
0.116,-0.000457764,
0.1165,0.0012207,
0.117,0.00167847,
0.1175,0.000457764,
0.118,0.000610352,
0.1185,0.00244141,
0.119,0.00350952,
0.1195,0.00305176,
0.12,0.00274658,
0.1205,0.00366211,
0.121,0.00366211,
0.1215,0.00411987,
0.122,0.00289917,
0.1225,0.00183105,
0.123,0.00152588,
0.1235,0.00183105,
0.124,0.000762939,
0.1245,-0.00137329,
0.125,-0.00488281,
0.1255,-0.00534058,
0.126,-0.0050354,
0.1265,-0.00671387,
0.127,-0.00686646,
0.1275,-0.0038147,
0.128,-0.00274658,
0.1285,-0.0012207,
0.129,0.000915527,
0.1295,0.000610352,
0.13,0.000457764,
0.1305,0.00244141,
0.131,0.00259399,
0.1315,0.00289917,
0.132,0.00289917,
0.1325,0.000915527,
0.133,-0.00137329,
0.1335,-0.00289917,
0.134,-0.00579834,
0.1345,-0.00930786,
0.135,-0.0112915,
0.1355,-0.00991821,
0.136,-0.00930786,
0.1365,-0.00946045,
0.137,-0.00762939,
0.1375,-0.0062561,
0.138,-0.00610352,
0.1385,-0.00595093,
0.139,-0.00473022,
0.1395,-0.00579834,
0.14,-0.00457764,
0.1405,-0.00213623,
0.141,-0.00106812,
0.1415,-0.000762939,
0.142,-0.00183105,
0.1425,-0.00350952,
0.143,-0.00518799,
0.1435,-0.00549316,
0.144,-0.00686646,
0.1445,-0.00778198,
0.145,-0.00900269,
0.1455,-0.00854492,
0.146,-0.00717163,
0.1465,-0.00656128,
0.147,-0.00686646,
0.1475,-0.00717163,
0.148,-0.0050354,
0.1485,-0.00152588,
0.149,0.00213623,
0.1495,0.00457764,
0.15,0.00701904,
0.1505,0.00747681,
0.151,0.00671387,
0.1515,0.00747681,
0.152,0.00854492,
0.1525,0.00900269,
0.153,0.0088501,
0.1535,0.0105286,
0.154,0.0140381,
0.1545,0.0158691,
0.155,0.0152588,
0.1555,0.0152588,
0.156,0.0160217,
0.1565,0.0151062,
0.157,0.0138855,
0.1575,0.0149536,
0.158,0.0151062,
0.1585,0.0125122,
0.159,0.00869751,
0.1595,0.00686646,
0.16,0.00411987,
0.1605,0.00259399,
0.161,0.00183105,
0.1615,-0.00228882,
0.162,-0.00671387,
0.1625,-0.0050354,
0.163,-0.00488281,
0.1635,-0.00915527,
0.164,-0.0109863,
0.1645,-0.0131226,
0.165,-0.0149536,
0.1655,-0.0163269,
0.166,-0.0196838,
0.1665,-0.0242615,
0.167,-0.0263977,
0.1675,-0.0257874,
0.168,-0.0236511,
0.1685,-0.0222778,
0.169,-0.0247192,
0.1695,-0.0257874,
0.17,-0.0257874,
0.1705,-0.0244141,
0.171,-0.0190735,
0.1715,-0.0158691,
0.172,-0.0154114,
0.1725,-0.0135803,
0.173,-0.0115967,
0.1735,-0.0106812,
0.174,-0.00961304,
0.1745,-0.00656128,
0.175,-0.00488281,
0.1755,-0.00534058,
0.176,-0.00457764,
0.1765,-0.00549316,
0.177,-0.00946045,
0.1775,-0.0141907,
0.178,-0.0152588,
0.1785,-0.0149536,
0.179,-0.0163269,
0.1795,-0.0177002,
0.18,-0.0189209,
0.1805,-0.0209045,
0.181,-0.0212097,
0.1815,-0.0178528,
0.182,-0.0119019,
0.1825,-0.00976563,
0.183,-0.0102234,
0.1835,-0.00961304,
0.184,-0.00778198,
0.1845,-0.0062561,
0.185,-0.00366211,
0.1855,-0.000915527,
0.186,0.00198364,
0.1865,0.00457764,
0.187,0.00289917,
0.1875,0.00137329,
0.188,0.00137329,
0.1885,0.00167847,
0.189,0.00137329,
0.1895,0.00137329,
0.19,0.0038147,
0.1905,0.00686646,
0.191,0.00961304,
0.1915,0.0119019,
0.192,0.0111389,
0.1925,0.0108337,
0.193,0.0109863,
0.1935,0.0125122,
0.194,0.0126648,
0.1945,0.0106812,
0.195,0.012207,
0.1955,0.0120544,
0.196,0.00900269,
0.1965,0.0088501,
0.197,0.0105286,
0.1975,0.0111389,
0.198,0.0111389,
0.1985,0.010376,
0.199,0.00839233,
0.1995,0.00457764,
0.2,0.0012207,
0.2005,0.000457764,
0.201,0.00137329,
0.2015,0.00366211,
0.202,0.00686646,
0.2025,0.00732422,
0.203,0.00366211,
0.2035,-0.000762939,
0.204,-0.00305176,
0.2045,-0.00335693,
0.205,-0.00442505,
0.2055,-0.00610352,
0.206,-0.00869751,
0.2065,-0.00900269,
0.207,-0.00854492,
0.2075,-0.010376,
0.208,-0.0132751,
0.2085,-0.0120544,
0.209,-0.00701904,
0.2095,-0.00320435,
0.21,-0.0012207,
0.2105,-0.00106812,
0.211,-0.0012207,
0.2115,0.000305176,
0.212,0.0012207,
0.2125,0.00152588,
0.213,0.000915527,
0.2135,0.000457764,
0.214,0,
0.2145,-0.000457764,
0.215,0.000152588,
0.2155,0.00213623,
0.216,0.00335693,
0.2165,0.00305176,
0.217,0.00366211,
0.2175,0.00762939,
0.218,0.00930786,
0.2185,0.010376,
0.219,0.0111389,
0.2195,0.0102234,
0.22,0.010376,
0.2205,0.0109863,
0.221,0.00854492,
0.2215,0.00411987,
0.222,0.0050354,
0.2225,0.00976563,
0.223,0.0138855,
0.2235,0.0128174,
0.224,0.010376,
0.2245,0.0100708,
0.225,0.010376,
0.2255,0.00717163,
0.226,0.00259399,
0.2265,0,
0.227,-0.00167847,
0.2275,-0.0038147,
0.228,-0.00762939,
0.2285,-0.0100708,
0.229,-0.0126648,
0.2295,-0.0140381,
0.23,-0.0126648,
0.2305,-0.01297,
0.231,-0.0131226,
0.2315,-0.00946045,
0.232,-0.00732422,
0.2325,-0.00823975,
0.233,-0.00900269,
0.2335,-0.0112915,
0.234,-0.0125122,
0.2345,-0.0149536,
0.235,-0.0152588,
0.2355,-0.0117493,
0.236,-0.00900269,
0.2365,-0.00930786,
0.237,-0.00946045,
0.2375,-0.00854492,
0.238,-0.00961304,
0.2385,-0.00930786,
0.239,-0.00946045,
0.2395,-0.0100708,
0.24,-0.0117493,
0.2405,-0.0114441,
0.241,-0.00961304,
0.2415,-0.00778198,
0.242,-0.00320435,
0.2425,0.000610352,
0.243,-0.00167847,
0.2435,-0.00473022,
0.244,-0.00457764,
0.2445,-0.00564575,
0.245,-0.00747681,
0.2455,-0.00610352,
0.246,-0.00198364,
0.2465,0.00106812,
0.247,0.00167847,
0.2475,0.00167847,
0.248,0.00259399,
0.2485,0.00366211,
0.249,0.00396729,
0.2495,0.00305176,
0.25,0.00289917,
0.2505,0.00259399,
0.251,0.0038147,
0.2515,0.00350952,
0.252,0.00427246,
0.2525,0.0038147,
0.253,0.00320435,
0.2535,0.00579834,
0.254,0.00808716,
0.2545,0.0088501,
0.255,0.0109863,
0.2555,0.0131226,
0.256,0.0138855,
0.2565,0.0149536,
0.257,0.0164795,
0.2575,0.0183105,
0.258,0.0175476,
0.2585,0.0166321,
0.259,0.0184631,
0.2595,0.0193787,
0.26,0.0180054,
0.2605,0.0177002,
0.261,0.0167847,
0.2615,0.0132751,
0.262,0.0123596,
0.2625,0.0125122,
0.263,0.0135803,
0.2635,0.010376,
0.264,0.00854492,
0.2645,0.00793457,
0.265,0.00289917,
0.2655,-0.00198364,
0.266,-0.00396729,
0.2665,-0.00854492,
0.267,-0.0152588,
0.2675,-0.0233459,
0.268,-0.0328064,
0.2685,-0.0422668,
0.269,-0.0524902,
0.2695,-0.0558472,
0.27,-0.0509644,
0.2705,-0.0424194,
0.271,-0.0357056,
0.2715,-0.0283813,
0.272,-0.0212097,
0.2725,-0.0184631,
0.273,-0.0161743,
0.2735,-0.0146484,
0.274,-0.0164795,
0.2745,-0.0143433,
0.275,-0.00946045,
0.2755,-0.00534058,
0.276,-0.00335693,
0.2765,-0.00534058,
0.277,-0.00732422,
0.2775,-0.00610352,
0.278,-0.00320435,
0.2785,-0.00228882,
0.279,-0.00473022,
0.2795,-0.00518799,
0.28,-0.00274658,
0.2805,-0.00228882,
0.281,-0.00183105,
0.2815,-0.000915527,
0.282,-0.00167847,
0.2825,-0.00198364,
0.283,-0.000915527,
0.2835,-0.00106812,
0.284,-0.00320435,
0.2845,-0.0038147,
0.285,-0.00366211,
0.2855,-0.00228882,
0.286,-0.00244141,
0.2865,-0.00396729,
0.287,-0.00518799,
0.2875,-0.00579834,
0.288,-0.00488281,
0.2885,-0.00289917,
0.289,-0.000457764,
0.2895,0.00198364,
0.29,0.00549316,
0.2905,0.00823975,
0.291,0.00991821,
0.2915,0.010376,
0.292,0.00839233,
0.2925,0.00778198,
0.293,0.00686646,
0.2935,0.00579834,
0.294,0.0050354,
0.2945,0.00564575,
0.295,0.00946045,
0.2955,0.0125122,
0.296,0.014801,
0.2965,0.0149536,
0.297,0.0151062,
0.2975,0.0170898,
0.298,0.0192261,
0.2985,0.020752,
0.299,0.019989,
0.2995,0.0192261,
0.3,0.0158691,
0.3005,0.0114441,
0.301,0.00732422,
0.3015,0.00686646,
0.302,0.00747681,
0.3025,0.00579834,
0.303,0.00366211,
0.3035,0.00320435,
0.304,0.00366211,
0.3045,0.00289917,
0.305,0,
0.3055,-0.00350952,
0.306,-0.00350952,
0.3065,-0.00335693,
0.307,-0.00839233,
0.3075,-0.015564,
0.308,-0.0244141,
0.3085,-0.0311279,
0.309,-0.0343323,
0.3095,-0.0372314,
0.31,-0.0395203,
0.3105,-0.0370789,
0.311,-0.0308228,
0.3115,-0.0233459,
0.312,-0.0170898,
0.3125,-0.0137329,
0.313,-0.012207,
0.3135,-0.0119019,
0.314,-0.0106812,
0.3145,-0.00808716,
0.315,-0.00396729,
0.3155,-0.00259399,
0.316,-0.00320435,
0.3165,-0.00198364,
0.317,-0.00106812,
0.3175,0.00106812,
0.318,0.00335693,
0.3185,0.00396729,
0.319,0.00534058,
0.3195,0.00793457,
0.32,0.00976563,
0.3205,0.00915527,
0.321,0.00823975,
0.3215,0.00671387,
0.322,0.00869751,
0.3225,0.00976563,
0.323,0.00915527,
0.3235,0.0100708,
0.324,0.0120544,
0.3245,0.0123596,
0.325,0.0108337,
0.3255,0.00930786,
0.326,0.00778198,
0.3265,0.00564575,
0.327,0.0062561,
0.3275,0.00839233,
0.328,0.00793457,
0.3285,0.00793457,
0.329,0.00961304,
0.3295,0.0102234,
0.33,0.00686646,
0.3305,0.00396729,
0.331,0.00106812,
0.3315,-0.00350952,
0.332,-0.00823975,
0.3325,-0.0108337,
0.333,-0.0126648,
0.3335,-0.0140381,
0.334,-0.0161743,
0.3345,-0.017395,
0.335,-0.0178528,
0.3355,-0.0190735,
0.336,-0.020752,
0.3365,-0.0204468,
0.337,-0.017395,
0.3375,-0.0160217,
0.338,-0.0169373,
0.3385,-0.0160217,
0.339,-0.0138855,
0.3395,-0.0105286,
0.34,-0.00854492,
0.3405,-0.00793457,
0.341,-0.00717163,
0.3415,-0.00518799,
0.342,-0.00366211,
0.3425,-0.00228882,
0.343,-0.00198364,
0.3435,-0.00198364,
0.344,-0.00228882,
0.3445,-0.0012207,
0.345,0.00106812,
0.3455,0.0012207,
0.346,0.0012207,
0.3465,-0.000457764,
0.347,-0.00167847,
0.3475,-0.00106812,
0.348,-0.00167847,
0.3485,-0.00289917,
0.349,-0.00305176,
0.3495,-0.00244141,
0.35,-0.000610352,
0.3505,0.000305176,
0.351,-0.00152588,
0.3515,-0.0012207,
0.352,0.00213623,
0.3525,0.00152588,
0.353,-0.00106812,
0.3535,-0.00183105,
0.354,-0.0012207,
0.3545,0.000457764,
0.355,0.00228882,
0.3555,0.00366211,
0.356,0.00595093,
0.3565,0.00793457,
0.357,0.00869751,
0.3575,0.00930786,
0.358,0.0109863,
0.3585,0.0123596,
0.359,0.014801,
0.3595,0.0187683,
0.36,0.0175476,
0.3605,0.0151062,
0.361,0.0141907,
0.3615,0.0128174,
0.362,0.0108337,
0.3625,0.00732422,
0.363,0.000915527,
0.3635,-0.00427246,
0.364,-0.00473022,
0.3645,-0.00274658,
0.365,-0.00137329,
0.3655,-0.000915527,
0.366,0.000305176,
0.3665,0.00106812,
0.367,0.00289917,
0.3675,0.00167847,
0.368,-0.00228882,
0.3685,-0.0038147,
0.369,-0.000457764,
0.3695,0.00289917,
0.37,0.00396729,
0.3705,0.00289917,
0.371,0.00305176,
0.3715,0.00152588,
0.372,-0.00106812,
0.3725,-0.00274658,
0.373,-0.00656128,
0.3735,-0.0105286,
0.374,-0.0109863,
0.3745,-0.00976563,
0.375,-0.00869751,
0.3755,-0.00869751,
0.376,-0.012207,
0.3765,-0.0137329,
0.377,-0.0154114,
0.3775,-0.0192261,
0.378,-0.0228882,
0.3785,-0.0230408,
0.379,-0.0192261,
0.3795,-0.0144958,
0.38,-0.0112915,
0.3805,-0.0119019,
0.381,-0.01297,
0.3815,-0.0108337,
0.382,-0.00778198,
0.3825,-0.00640869,
0.383,-0.00579834,
0.3835,-0.00473022,
0.384,-0.00244141,
0.3845,-0.00106812,
0.385,-0.00106812,
0.3855,0.000152588,
0.386,0.00274658,
0.3865,0.000762939,
0.387,-0.00656128,
0.3875,-0.012207,
0.388,-0.0126648,
0.3885,-0.0123596,
0.389,-0.0137329,
0.3895,-0.0111389,
0.39,-0.00595093,
0.3905,-0.00610352,
0.391,-0.00747681,
0.3915,-0.00595093,
0.392,-0.00579834,
0.3925,-0.00762939,
0.393,-0.0050354,
0.3935,-0.00366211,
0.394,-0.00640869,
0.3945,-0.00747681,
0.395,-0.00717163,
0.3955,-0.00534058,
0.396,-0.00579834,
0.3965,-0.00946045,
0.397,-0.012207,
0.3975,-0.01297,
0.398,-0.0120544,
0.3985,-0.01297,
0.399,-0.0151062,
0.3995,-0.0154114,
0.4,-0.014801,
0.4005,-0.0123596,
0.401,-0.00823975,
0.4015,-0.00198364,
0.402,0.00274658,
0.4025,0.00793457,
0.403,0.0105286,
0.4035,0.0088501,
0.404,0.0062561,
0.4045,0.00671387,
0.405,0.00595093,
0.4055,0.00305176,
0.406,0.000152588,
0.4065,0.000152588,
0.407,0.00320435,
0.4075,0.00579834,
0.408,0.0062561,
0.4085,0.00442505,
0.409,0.00457764,
0.4095,0.00579834,
0.41,0.00518799,
0.4105,0.00442505,
0.411,0.00823975,
0.4115,0.014801,
0.412,0.0158691,
0.4125,0.0131226,
0.413,0.0117493,
0.4135,0.0114441,
0.414,0.010376,
0.4145,0.00839233,
0.415,0.00778198,
0.4155,0.00854492,
0.416,0.00854492,
0.4165,0.00808716,
0.417,0.00610352,
0.4175,0.00411987,
0.418,0.00518799,
0.4185,0.0050354,
0.419,0.00335693,
0.4195,0.00183105,
0.42,0.000762939,
0.4205,-0.000610352,
0.421,-0.00183105,
0.4215,-0.00228882,
0.422,0,
0.4225,-0.00183105,
0.423,-0.00671387,
0.4235,-0.0119019,
0.424,-0.0137329,
0.4245,-0.0123596,
0.425,-0.0100708,
0.4255,-0.00961304,
0.426,-0.0100708,
0.4265,-0.0125122,
0.427,-0.0149536,
0.4275,-0.0144958,
0.428,-0.0144958,
0.4285,-0.0154114,
0.429,-0.0135803,
0.4295,-0.00946045,
0.43,-0.00778198,
0.4305,-0.00640869,
0.431,-0.00717163,
0.4315,-0.00686646,
0.432,-0.00411987,
0.4325,-0.00167847,
0.433,-0.00106812,
0.4335,-0.00198364,
0.434,0.000152588,
0.4345,0.00396729,
0.435,0.00671387,
0.4355,0.00976563,
0.436,0.00991821,
0.4365,0.0102234,
0.437,0.0111389,
0.4375,0.0109863,
0.438,0.0125122,
0.4385,0.0146484,
0.439,0.0169373,
0.4395,0.0184631,
0.44,0.0175476,
0.4405,0.0146484,
0.441,0.00991821,
0.4415,0.00640869,
0.442,0.00564575,
0.4425,0.00427246,
0.443,0.00335693,
0.4435,0.00274658,
0.444,-0.00106812,
0.4445,-0.0088501,
0.445,-0.0218201,
0.4455,-0.0376892,
0.446,-0.0561523,
0.4465,-0.119324,
0.447,-0.235291,
0.4475,-0.32547,
0.448,-0.33844,
0.4485,-0.303345,
0.449,-0.258484,
0.4495,-0.214844,
0.45,-0.165863,
0.4505,-0.107269,
0.451,-0.0540161,
0.4515,-0.0224304,
0.452,-0.0111389,
0.4525,-0.00534058,
0.453,0.0184631,
0.4535,0.0590515,
0.454,0.1091,
0.4545,0.159454,
0.455,0.197144,
0.4555,0.21759,
0.456,0.215607,
0.4565,0.192108,
0.457,0.158386,
0.4575,0.122528,
0.458,0.0869751,
0.4585,0.0578308,
0.459,0.0369263,
0.4595,0.0202942,
0.46,0.00946045,
0.4605,0.00579834,
0.461,0.00839233,
0.4615,0.0157166,
0.462,0.0276184,
0.4625,0.0436401,
0.463,0.0611877,
0.4635,0.0764465,
0.464,0.085907,
0.4645,0.0915527,
0.465,0.0996399,
0.4655,0.102692,
0.466,0.0958252,
0.4665,0.0880432,
0.467,0.0819397,
0.4675,0.0840759,
0.468,0.0987244,
0.4685,0.0956726,
0.469,0.0578308,
0.4695,0.0102234,
0.47,-0.0166321,
0.4705,-0.0294495,
0.471,-0.0512695,
0.4715,-0.0801086,
0.472,-0.0942993,
0.4725,-0.10498,
0.473,-0.154114,
0.4735,-0.223846,
0.474,-0.263062,
0.4745,-0.261688,
0.475,-0.239563,
0.4755,-0.206299,
0.476,-0.161438,
0.4765,-0.11261,
0.477,-0.0689697,
0.4775,-0.0346375,
0.478,-0.00778198,
0.4785,0.00946045,
0.479,0.0102234,
0.4795,0.00396729,
0.48,0.0134277,
0.4805,0.0395203,
0.481,0.0650024,
0.4815,0.0845337,
0.482,0.0932312,
0.4825,0.0553894,
0.483,-0.0363159,
0.4835,-0.115967,
0.484,-0.143585,
0.4845,-0.138245,
0.485,-0.120087,
0.4855,-0.0939941,
0.486,-0.0637817,
0.4865,-0.0267029,
0.487,0.0213623,
0.4875,0.0761414,
0.488,0.124359,
0.4885,0.155029,
0.489,0.172119,
0.4895,0.18631,
0.49,0.201721,
0.4905,0.22644,
0.491,0.262299,
0.4915,0.296783,
0.492,0.318298,
0.4925,0.325317,
0.493,0.32074,
0.4935,0.302277,
0.494,0.270996,
0.4945,0.232239,
0.495,0.196381,
0.4955,0.177155,
0.496,0.174103,
0.4965,0.175323,
0.497,0.182037,
0.4975,0.184479,
0.498,0.169678,
0.4985,0.140076,
0.499,0.102539,
0.4995,0.0627136,
0.5,0.0285339,
0.5005,0.00198364,
0.501,-0.0213623,
0.5015,-0.0408936,
0.502,-0.0495911,
0.5025,-0.0524902,
0.503,-0.0590515,
0.5035,-0.0698853,
0.504,-0.0788879,
0.5045,-0.0852966,
0.505,-0.0923157,
0.5055,-0.101471,
0.506,-0.110931,
0.5065,-0.119934,
0.507,-0.126343,
0.5075,-0.133667,
0.508,-0.139618,
0.5085,-0.142059,
0.509,-0.139771,
0.5095,-0.134277,
0.51,-0.132294,
0.5105,-0.13031,
0.511,-0.124512,
0.5115,-0.119476,
0.512,-0.117493,
0.5125,-0.119171,
0.513,-0.125275,
0.5135,-0.130157,
0.514,-0.138702,
0.5145,-0.187836,
0.515,-0.269165,
0.5155,-0.309753,
0.516,-0.294189,
0.5165,-0.254211,
0.517,-0.211487,
0.5175,-0.167084,
0.518,-0.120087,
0.5185,-0.0758362,
0.519,-0.0454712,
0.5195,-0.0312805,
0.52,-0.0230408,
0.5205,-0.0160217,
0.521,-0.0038147,
0.5215,0.0183105,
0.522,0.045166,
0.5225,0.0724792,
0.523,0.0875854,
0.5235,0.0894165,
0.524,0.0794983,
0.5245,0.0552368,
0.525,0.0265503,
0.5255,0.00457764,
0.526,-0.0117493,
0.5265,-0.0262451,
0.527,-0.0363159,
0.5275,-0.0364685,
0.528,-0.0338745,
0.5285,-0.0349426,
0.529,-0.0376892,
0.5295,-0.0405884,
0.53,-0.0387573,
0.5305,-0.032959,
0.531,-0.0280762,
0.5315,-0.0238037,
0.532,-0.0192261,
0.5325,-0.017395,
0.533,-0.0175476,
0.5335,-0.0169373,
0.534,-0.0149536,
0.5345,-0.0135803,
0.535,-0.0138855,
0.5355,-0.0152588,
0.536,-0.0135803,
0.5365,-0.0112915,
0.537,-0.00869751,
0.5375,-0.00930786,
0.538,-0.0131226,
0.5385,-0.0138855,
0.539,-0.0143433,
0.5395,-0.0135803,
0.54,-0.0119019,
0.5405,-0.0161743,
0.541,-0.0216675,
0.5415,-0.022583,
0.542,-0.0192261,
0.5425,-0.0184631,
0.543,-0.0209045,
0.5435,-0.0245667,
0.544,-0.0273132,
0.5445,-0.0288391,
0.545,-0.0320435,
0.5455,-0.0393677,
0.546,-0.0497437,
0.5465,-0.0552368,
0.547,-0.0508118,
0.5475,-0.0404358,
0.548,-0.0314331,
0.5485,-0.0236511,
0.549,-0.0149536,
0.5495,-0.00793457,
0.55,-0.00915527,
0.5505,-0.0170898,
0.551,-0.0306702,
0.5515,-0.0645447,
0.552,-0.101471,
0.5525,-0.108032,
0.553,-0.0836182,
0.5535,-0.0500488,
0.554,-0.0144958,
0.5545,0.0233459,
0.555,0.0553894,
0.5555,0.0758362,
0.556,0.0907898,
0.5565,0.103607,
0.557,0.110474,
0.5575,0.119324,
0.558,0.136108,
0.5585,0.149078,
0.559,0.157471,
0.5595,0.174103,
0.56,0.196686,
0.5605,0.212402,
0.561,0.21286,
0.5615,0.19516,
0.562,0.16861,
0.5625,0.146637,
0.563,0.133057,
0.5635,0.124359,
0.564,0.115662,
0.5645,0.106201,
0.565,0.0946045,
0.5655,0.0796509,
0.566,0.0656128,
0.5665,0.055542,
0.567,0.0515747,
0.5675,0.0520325,
0.568,0.0445557,
0.5685,0.0312805,
0.569,0.0202942,
0.5695,0.0152588,
0.57,0.00869751,
0.5705,-0.00488281,
0.571,-0.0273132,
0.5715,-0.0869751,
0.572,-0.18631,
0.5725,-0.25589,
0.573,-0.256195,
0.5735,-0.217133,
0.574,-0.174103,
0.5745,-0.135345,
0.575,-0.132446,
0.5755,-0.194244,
0.576,-0.259705,
0.5765,-0.266418,
0.577,-0.222626,
0.5775,-0.153656,
0.578,-0.0764465,
0.5785,-0.0106812,
0.579,0.0378418,
0.5795,0.0743103,
0.58,0.101776,
0.5805,0.126648,
0.581,0.154572,
0.5815,0.183563,
0.582,0.202942,
0.5825,0.213165,
0.583,0.22522,
0.5835,0.243683,
0.584,0.263824,
0.5845,0.274506,
0.585,0.269165,
0.5855,0.252533,
0.586,0.22934,
0.5865,0.195313,
0.587,0.158844,
0.5875,0.133667,
0.588,0.118103,
0.5885,0.10025,
0.589,0.0830078,
0.5895,0.070343,
0.59,0.0602722,
0.5905,0.0534058,
0.591,0.0547791,
0.5915,0.0614929,
0.592,0.06073,
0.5925,0.0488281,
0.593,0.032959,
0.5935,0.0195313,
0.594,0.00900269,
0.5945,-0.00701904,
0.595,-0.0282288,
0.5955,-0.0492859,
0.596,-0.0694275,
0.5965,-0.0909424,
0.597,-0.111389,
0.5975,-0.126343,
0.598,-0.140686,
0.5985,-0.158997,
0.599,-0.181274,
0.5995,-0.219116,
0.6,-0.270996,
0.6005,-0.300293,
0.601,-0.292969,
0.6015,-0.266571,
0.602,-0.235138,
0.6025,-0.204315,
0.603,-0.175629,
0.6035,-0.153198,
0.604,-0.13382,
0.6045,-0.115662,
0.605,-0.0990295,
0.6055,-0.0827026,
0.606,-0.0630188,
0.6065,-0.0376892,
0.607,-0.0163269,
0.6075,0.00137329,
0.608,0.025177,
0.6085,0.0505066,
0.609,0.0718689,
0.6095,0.092926,
0.61,0.118256,
0.6105,0.151825,
0.611,0.187225,
0.6115,0.211334,
0.612,0.22171,
0.6125,0.21637,
0.613,0.193329,
0.6135,0.162201,
0.614,0.1297,
0.6145,0.101471,
0.615,0.0767517,
0.6155,0.0483704,
0.616,0.0123596,
0.6165,-0.0204468,
0.617,-0.0401306,
0.6175,-0.0511169,
0.618,-0.06073,
0.6185,-0.0694275,
0.619,-0.0750732,
0.6195,-0.0778198,
0.62,-0.0830078,
0.6205,-0.090332,
0.621,-0.0950623,
0.6215,-0.0979614,
0.622,-0.0996399,
0.6225,-0.0956726,
0.623,-0.121918,
0.6235,-0.203857,
0.624,-0.270081,
0.6245,-0.250244,
0.625,-0.161591,
0.6255,-0.065918,
0.626,-0.00534058,
0.6265,0.0279236,
0.627,0.0460815,
0.6275,0.0531006,
0.628,0.052948,
0.6285,0.0517273,
0.629,0.0537109,
0.6295,0.0517273,
0.63,0.0204468,
0.6305,-0.0540161,
0.631,-0.120697,
0.6315,-0.127258,
0.632,-0.0770569,
0.6325,-0.00946045,
0.633,0.0401306,
0.6335,0.0532532,
0.634,-0.00289917,
0.6345,-0.119629,
0.635,-0.212555,
0.6355,-0.236816,
0.636,-0.211029,
0.6365,-0.164948,
0.637,-0.122223,
0.6375,-0.0935364,
0.638,-0.0692749,
0.6385,-0.0311279,
0.639,0.0242615,
0.6395,0.0750732,
0.64,0.110321,
0.6405,0.132904,
0.641,0.14801,
0.6415,0.148926,
0.642,0.127869,
0.6425,0.100861,
0.643,0.0959778,
0.6435,0.118713,
0.644,0.164337,
0.6445,0.2211,
0.645,0.277863,
0.6455,0.315552,
0.646,0.305481,
0.6465,0.245667,
0.647,0.165863,
0.6475,0.0970459,
0.648,0.0552368,
0.6485,0.0344849,
0.649,0.0256348,
0.6495,0.0204468,
0.65,0.00701904,
0.6505,-0.0100708,
0.651,-0.0120544,
0.6515,0.00106812,
0.652,-0.000305176,
0.6525,-0.0227356,
0.653,-0.043335,
0.6535,-0.0546265,
0.654,-0.0567627,
0.6545,-0.0524902,
0.655,-0.0463867,
0.6555,-0.0460815,
0.656,-0.0518799,
0.6565,-0.0537109,
0.657,-0.0538635,
0.6575,-0.0566101,
0.658,-0.0505066,
0.6585,-0.0346375,
0.659,-0.0256348,
0.6595,-0.0309753,
0.66,-0.040741,
0.6605,-0.0488281,
0.661,-0.0572205,
0.6615,-0.065155,
0.662,-0.0671387,
0.6625,-0.0714111,
0.663,-0.0773621,
0.6635,-0.0846863,
0.664,-0.0895691,
0.6645,-0.0900269,
0.665,-0.0872803,
0.6655,-0.0836182,
0.666,-0.0778198,
0.6665,-0.0689697,
0.667,-0.062561,
0.6675,-0.0567627,
0.668,-0.0483704,
0.6685,-0.0408936,
0.669,-0.0411987,
0.6695,-0.0456238,
0.67,-0.04776,
0.6705,-0.0485229,
0.671,-0.0546265,
0.6715,-0.0630188,
0.672,-0.0689697,
0.6725,-0.0744629,
0.673,-0.078125,
0.6735,-0.0767517,
0.674,-0.0717163,
0.6745,-0.0616455,
0.675,-0.0439453,
0.6755,-0.0267029,
0.676,-0.0105286,
0.6765,0.00610352,
0.677,0.0169373,
0.6775,0.0276184,
0.678,0.0416565,
0.6785,0.0422668,
0.679,0.027771,
0.6795,0.017395,
0.68,0.0152588,
0.6805,0.0210571,
0.681,0.0318909,
0.6815,0.0445557,
0.682,0.0611877,
0.6825,0.0787354,
0.683,0.0907898,
0.6835,0.100861,
0.684,0.101776,
0.6845,0.0808716,
0.685,0.0463867,
0.6855,0.0205994,
0.686,0.0100708,
0.6865,0.0102234,
0.687,0.0157166,
0.6875,0.0167847,
0.688,0.00579834,
0.6885,-0.00976563,
0.689,-0.0138855,
0.6895,-0.00488281,
0.69,0.00274658,
0.6905,0.00732422,
0.691,0.0166321,
0.6915,0.0288391,
0.692,0.038147,
0.6925,0.0489807,
0.693,0.0563049,
0.6935,0.0462341,
0.694,0.027771,
0.6945,0.0117493,
0.695,0.000457764,
0.6955,-0.00656128,
0.696,-0.00869751,
0.6965,-0.00854492,
0.697,-0.00320435,
0.6975,0.0135803,
0.698,0.0357056,
0.6985,0.0479126,
0.699,0.040741,
0.6995,0.0205994,
0.7,0.000152588,
0.7005,-0.0166321,
0.701,-0.0233459,
0.7015,-0.0224304,
0.702,-0.0271606,
0.7025,-0.039978,
0.703,-0.0521851,
0.7035,-0.0561523,
0.704,-0.0541687,
0.7045,-0.0473022,
0.705,-0.0337219,
0.7055,-0.0164795,
0.706,-0.00823975,
0.7065,-0.0151062,
0.707,-0.0227356,
0.7075,-0.0178528,
0.708,0.00457764,
0.7085,0.0337219,
0.709,0.0567627,
0.7095,0.0611877,
0.71,0.0473022,
0.7105,0.0325012,
0.711,0.0305176,
0.7115,0.0334167,
0.712,0.0320435,
0.7125,0.0253296,
0.713,0.017395,
0.7135,-0.0190735,
0.714,-0.0816345,
0.7145,-0.127563,
0.715,-0.141296,
0.7155,-0.132294,
0.716,-0.108643,
0.7165,-0.0744629,
0.717,-0.0363159,
0.7175,-0.00717163,
0.718,0.00915527,
0.7185,0.0187683,
0.719,0.0326538,
0.7195,0.0494385,
0.72,0.0654602,
0.7205,0.0724792,
0.721,0.070343,
0.7215,0.0679016,
0.722,0.0743103,
0.7225,0.0930786,
0.723,0.106964,
0.7235,0.0973511,
0.724,0.065918,
0.7245,0.0247192,
0.725,-0.00900269,
0.7255,-0.0285339,
0.726,-0.0389099,
0.7265,-0.0531006,
0.727,-0.062561,
0.7275,-0.0531006,
0.728,-0.0334167,
0.7285,-0.0192261,
0.729,-0.01297,
0.7295,-0.00732422,
0.73,0.00213623,
0.7305,0.00823975,
0.731,0.00488281,
0.7315,-0.0123596,
0.732,-0.0338745,
0.7325,-0.0535583,
0.733,-0.0700378,
0.7335,-0.0830078,
0.734,-0.0952148,
0.7345,-0.103607,
0.735,-0.109863,
0.7355,-0.112457,
0.736,-0.111237,
0.7365,-0.10849,
0.737,-0.101166,
0.7375,-0.0842285,
0.738,-0.0527954,
0.7385,-0.0195313,
0.739,-0.00183105,
0.7395,0.00732422,
0.74,0.0270081,
0.7405,0.0537109,
0.741,0.0854492,
0.7415,0.119934,
0.742,0.134735,
0.7425,0.120239,
0.743,0.0904846,
0.7435,0.0634766,
0.744,0.0520325,
0.7445,0.0500488,
0.745,0.0436401,
0.7455,0.0279236,
0.746,0.0120544,
0.7465,0.00762939,
0.747,0.0114441,
0.7475,0.0137329,
0.748,0.0111389,
0.7485,0.00991821,
0.749,0.0140381,
0.7495,0.0163269,
0.75,0.0154114,
0.7505,0.00808716,
0.751,-0.00259399,
0.7515,-0.0131226,
0.752,-0.0170898,
0.7525,-0.0119019,
0.753,-0.00320435,
0.7535,0.00671387,
0.754,0.0204468,
0.7545,0.0361633,
0.755,0.039978,
0.7555,0.0312805,
0.756,0.0195313,
0.7565,0.0106812,
0.757,0.00442505,
0.7575,0.00152588,
0.758,0.00778198,
0.7585,0.0212097,
0.759,0.0335693,
0.7595,0.0350952,
0.76,0.0260925,
0.7605,0.0202942,
0.761,0.0239563,
0.7615,0.0212097,
0.762,0.00854492,
0.7625,-0.00411987,
0.763,-0.0146484,
0.7635,-0.0254822,
0.764,-0.035553,
0.7645,-0.0424194,
0.765,-0.0463867,
0.7655,-0.0468445,
0.766,-0.0445557,
0.7665,-0.0408936,
0.767,-0.0382996,
0.7675,-0.0405884,
0.768,-0.0427246,
0.7685,-0.040741,
0.769,-0.0382996,
0.7695,-0.0378418,
0.77,-0.035553,
0.7705,-0.0292969,
0.771,-0.0184631,
0.7715,-0.00640869,
0.772,0.00915527,
0.7725,0.0274658,
0.773,0.0405884,
0.7735,0.0492859,
0.774,0.0550842,
0.7745,0.0488281,
0.775,0.0331116,
0.7755,0.019989,
0.776,0.0128174,
0.7765,0.0126648,
0.777,0.0152588,
0.7775,0.0131226,
0.778,0.00991821,
0.7785,0.00823975,
0.779,0.00595093,
0.7795,0.00457764,
0.78,0.0012207,
0.7805,-0.00198364,
0.781,-0.00518799,
0.7815,-0.00488281,
0.782,0.00320435,
0.7825,0.0177002,
0.783,0.0228882,
0.7835,0.0202942,
0.784,0.0152588,
0.7845,0.00823975,
0.785,-0.000915527,
0.7855,-0.0108337,
0.786,-0.017395,
0.7865,-0.0198364,
0.787,-0.0247192,
0.7875,-0.0402832,
0.788,-0.080719,
0.7885,-0.150909,
0.789,-0.213318,
0.7895,-0.233765,
0.79,-0.220642,
0.7905,-0.21347,
0.791,-0.207367,
0.7915,-0.165405,
0.792,-0.100708,
0.7925,-0.0488281,
0.793,-0.0209045,
0.7935,-0.0012207,
0.794,0.0196838,
0.7945,0.0384521,
0.795,0.0588989,
0.7955,0.0872803,
0.796,0.120239,
0.7965,0.150909,
0.797,0.186462,
0.7975,0.224152,
0.798,0.245056,
0.7985,0.236969,
0.799,0.211639,
0.7995,0.193634,
0.8,0.182037,
0.8005,0.166016,
0.801,0.133209,
0.8015,0.0898743,
0.802,0.0627136,
0.8025,0.0621033,
0.803,0.0576782,
0.8035,0.0276184,
0.804,-0.0120544,
0.8045,-0.0401306,
0.805,-0.0598145,
0.8055,-0.065918,
0.806,-0.052948,
0.8065,-0.0402832,
0.807,-0.0390625,
0.8075,-0.0431824,
0.808,-0.0395203,
0.8085,-0.0253296,
0.809,-0.0158691,
0.8095,-0.00839233,
0.81,0.00274658,
0.8105,-0.000915527,
0.811,-0.035553,
0.8115,-0.0790405,
0.812,-0.106354,
0.8125,-0.118408,
0.813,-0.117035,
0.8135,-0.102539,
0.814,-0.0801086,
0.8145,-0.0498962,
0.815,-0.0241089,
0.8155,-0.0141907,
0.816,-0.00854492,
0.8165,0.00305176,
0.817,0.0164795,
0.8175,0.0300598,
0.818,0.0401306,
0.8185,0.0421143,
0.819,0.0430298,
0.8195,0.0559998,
0.82,0.0842285,
0.8205,0.130615,
0.821,0.165863,
0.8215,0.164337,
0.822,0.140381,
0.8225,0.119781,
0.823,0.096283,
0.8235,0.068512,
0.824,0.0422668,
0.8245,0.0141907,
0.825,-0.0163269,
0.8255,-0.0357056,
0.826,-0.0364685,
0.8265,-0.0311279,
0.827,-0.0325012,
0.8275,-0.0424194,
0.828,-0.0592041,
0.8285,-0.0770569,
0.829,-0.0891113,
0.8295,-0.0950623,
0.83,-0.0959778,
0.8305,-0.0952148,
0.831,-0.0900269,
0.8315,-0.0831604,
0.832,-0.0737,
0.8325,-0.0656128,
0.833,-0.0595093,
0.8335,-0.0518799,
0.834,-0.0350952,
0.8345,-0.0151062,
0.835,0.00228882,
0.8355,0.017395,
0.836,0.0309753,
0.8365,0.0369263,
0.837,0.0332642,
0.8375,0.0215149,
0.838,0.00350952,
0.8385,-0.0125122,
0.839,-0.0198364,
0.8395,-0.0177002,
0.84,-0.00915527,
0.8405,0.00442505,
0.841,0.0230408,
0.8415,0.0346375,
0.842,0.0245667,
0.8425,-0.00137329,
0.843,-0.0167847,
0.8435,-0.0180054,
0.844,-0.0172424,
0.8445,-0.0198364,
0.845,-0.0149536,
0.8455,-0.00411987,
0.846,-0.00717163,
0.8465,-0.0202942,
0.847,-0.025177,
0.8475,-0.0228882,
0.848,-0.0180054,
0.8485,-0.012207,
0.849,-0.0141907,
0.8495,-0.0257874,
0.85,-0.0418091,
0.8505,-0.0588989,
0.851,-0.0700378,
0.8515,-0.0724792,
0.852,-0.0708008,
0.8525,-0.0740051,
0.853,-0.0767517,
0.8535,-0.0706482,
0.854,-0.0541687,
0.8545,-0.0292969,
0.855,-0.0038147,
0.8555,0.0109863,
0.856,-0.000762939,
0.8565,-0.0408936,
0.857,-0.0865173,
0.8575,-0.11322,
0.858,-0.114594,
0.8585,-0.0970459,
0.859,-0.0709534,
0.8595,-0.0370789,
0.86,0.00564575,
0.8605,0.0402832,
0.861,0.0500488,
0.8615,0.0448608,
0.862,0.0370789,
0.8625,0.032196,
0.863,0.0343323,
0.8635,0.0408936,
0.864,0.0468445,
0.8645,0.0608826,
0.865,0.0964355,
0.8655,0.133667,
0.866,0.147858,
0.8665,0.136871,
0.867,0.104523,
0.8675,0.0663757,
0.868,0.0344849,
0.8685,0.00671387,
0.869,-0.00289917,
0.8695,0.0180054,
0.87,0.0402832,
0.8705,0.0415039,
0.871,0.032959,
0.8715,0.0245667,
0.872,0.0117493,
0.8725,-0.00915527,
0.873,-0.0320435,
0.8735,-0.0498962,
0.874,-0.0605774,
0.8745,-0.0640869,
0.875,-0.0602722,
0.8755,-0.0540161,
0.876,-0.0486755,
0.8765,-0.0398254,
0.877,-0.0172424,
0.8775,0.0114441,
0.878,0.0306702,
0.8785,0.03479,
0.879,0.014801,
0.8795,-0.0195313,
0.88,-0.0480652,
0.8805,-0.0579834,
0.881,-0.0550842,
0.8815,-0.0440979,
0.882,-0.0230408,
0.8825,0.00671387,
0.883,0.0325012,
0.8835,0.0456238,
0.884,0.0476074,
0.8845,0.0405884,
0.885,0.0314331,
0.8855,0.0221252,
0.886,0.0158691,
0.8865,0.0100708,
0.887,0.00640869,
0.8875,0.000457764,
0.888,-0.00839233,
0.8885,-0.0119019,
0.889,-0.00900269,
0.8895,-0.0158691,
0.89,-0.03479,
0.8905,-0.0531006,
0.891,-0.0619507,
0.8915,-0.0588989,
0.892,-0.0436401,
0.8925,-0.022583,
0.893,-0.0062561,
0.8935,-0.000915527,
0.894,-0.00457764,
0.8945,-0.0117493,
0.895,-0.0169373,
0.8955,-0.0186157,
0.896,-0.0158691,
0.8965,-0.00595093,
0.897,0.00671387,
0.8975,0.0192261,
0.898,0.0346375,
0.8985,0.0556946,
0.899,0.075531,
0.8995,0.0802612,
0.9,0.065918,
0.9005,0.0411987,
0.901,0.0183105,
0.9015,0.00701904,
0.902,0.00411987,
0.9025,0,
0.903,-0.0126648,
0.9035,-0.0256348,
0.904,-0.0344849,
0.9045,-0.0430298,
0.905,-0.0614929,
0.9055,-0.112,
0.906,-0.191956,
0.9065,-0.265198,
0.907,-0.309296,
0.9075,-0.314941,
0.908,-0.279999,
0.9085,-0.226135,
0.909,-0.172424,
0.9095,-0.118866,
0.91,-0.0691223,
0.9105,-0.0363159,
0.911,-0.0361633,
0.9115,-0.0646973,
0.912,-0.0898743,
0.9125,-0.0869751,
0.913,-0.0587463,
0.9135,-0.0144958,
0.914,0.0541687,
0.9145,0.156555,
0.915,0.277405,
0.9155,0.367584,
0.916,0.39978,
0.9165,0.395203,
0.917,0.368652,
0.9175,0.328979,
0.918,0.293121,
0.9185,0.260468,
0.919,0.225983,
0.9195,0.187836,
0.92,0.161133,
0.9205,0.167542,
0.921,0.181885,
0.9215,0.160522,
0.922,0.114899,
0.9225,0.0802612,
0.923,0.0584412,
0.9235,0.03479,
0.924,0.00778198,
0.9245,-0.0195313,
0.925,-0.0471497,
0.9255,-0.0727844,
0.926,-0.0862122,
0.9265,-0.0856018,
0.927,-0.0848389,
0.9275,-0.085907,
0.928,-0.0852966,
0.9285,-0.0816345,
0.929,-0.0697327,
0.9295,-0.0497437,
0.93,-0.0326538,
0.9305,-0.0267029,
0.931,-0.0346375,
0.9315,-0.0517273,
0.932,-0.0662231,
0.9325,-0.0749207,
0.933,-0.0791931,
0.9335,-0.0819397,
0.934,-0.087738,
0.9345,-0.0921631,
0.935,-0.0872803,
0.9355,-0.0804138,
0.936,-0.0805664,
0.9365,-0.0889587,
0.937,-0.101471,
0.9375,-0.106659,
0.938,-0.102539,
0.9385,-0.0958252,
0.939,-0.0889587,
0.9395,-0.0810242,
0.94,-0.0749207,
0.9405,-0.0712585,
0.941,-0.0613403,
0.9415,-0.042572,
0.942,-0.0160217,
0.9425,0.0146484,
0.943,0.0326538,
0.9435,0.0296021,
0.944,0.0134277,
0.9445,0.000762939,
0.945,0.000762939,
0.9455,0.0131226,
0.946,0.0227356,
0.9465,0.018158,
0.947,0.0112915,
0.9475,0.0187683,
0.948,0.0346375,
0.9485,0.0527954,
0.949,0.0765991,
0.9495,0.102234,
0.95,0.129089,
0.9505,0.15686,
0.951,0.184174,
0.9515,0.196686,
0.952,0.188446,
0.9525,0.166016,
0.953,0.130005,
0.9535,0.0785828,
0.954,0.0270081,
0.9545,-0.0253296,
0.955,-0.062561,
0.9555,-0.0794983,
0.956,-0.0881958,
0.9565,-0.0933838,
0.957,-0.0942993,
0.9575,-0.0909424,
0.958,-0.0854492,
0.9585,-0.0762939,
0.959,-0.0601196,
0.9595,-0.0379944,
0.96,-0.0186157,
0.9605,-0.0050354,
0.961,0.00228882,
0.9615,0.00289917,
0.962,-0.00396729,
0.9625,-0.00778198,
0.963,-0.0114441,
0.9635,-0.0146484,
0.964,-0.0152588,
0.9645,-0.0178528,
0.965,-0.0198364,
0.9655,-0.0283813,
0.966,-0.0576782,
0.9665,-0.107117,
0.967,-0.154572,
0.9675,-0.183411,
0.968,-0.195313,
0.9685,-0.190125,
0.969,-0.164948,
0.9695,-0.125885,
0.97,-0.0854492,
0.9705,-0.0549316,
0.971,-0.0387573,
0.9715,-0.0296021,
0.972,-0.0244141,
0.9725,-0.0219727,
0.973,-0.0137329,
0.9735,0.000152588,
0.974,0.0201416,
0.9745,0.0541687,
0.975,0.104065,
0.9755,0.139313,
0.976,0.152893,
0.9765,0.162201,
0.977,0.172424,
0.9775,0.17395,
0.978,0.152588,
0.9785,0.114136,
0.979,0.0883484,
0.9795,0.0804138,
0.98,0.0668335,
0.9805,0.0440979,
0.981,0.0263977,
0.9815,0.0161743,
0.982,0.00915527,
0.9825,0.00427246,
0.983,0.0062561,
0.9835,0.0128174,
0.984,0.0164795,
0.9845,0.0112915,
0.985,0.000152588,
0.9855,-0.0144958,
0.986,-0.0291443,
0.9865,-0.0448608,
0.987,-0.0582886,
0.9875,-0.0650024,
0.988,-0.0743103,
0.9885,-0.101166,
0.989,-0.137787,
0.9895,-0.155487,
0.99,-0.141296,
0.9905,-0.110016,
0.991,-0.0979614,
0.9915,-0.117798,
0.992,-0.141296,
0.9925,-0.147247,
0.993,-0.138397,
0.9935,-0.127563,
0.994,-0.11673,
0.9945,-0.123749,
0.995,-0.159302,
0.9955,-0.193787,
0.996,-0.191498,
0.9965,-0.148926,
0.997,-0.0772095,
0.9975,0.00762939,
0.998,0.0883484,
0.9985,0.154877,
0.999,0.206757,
0.9995,0.241241,
1,0.254974,
1.0005,0.236053,
1.001,0.189514,
1.0015,0.130005,
1.002,0.0721741,
1.0025,0.0268555,
1.003,-0.00183105,
1.0035,-0.0131226,
1.004,0.00656128,
1.0045,0.0578308,
1.005,0.116577,
1.0055,0.159302,
1.006,0.186157,
1.0065,0.19989,
1.007,0.184784,
1.0075,0.135651,
1.008,0.0788879,
1.0085,0.0421143,
1.009,0.0288391,
1.0095,0.0370789,
1.01,0.065918,
1.0105,0.0915527,
1.011,0.105896,
1.0115,0.111237,
1.012,0.0959778,
1.0125,0.0576782,
1.013,0.0112915,
1.0135,-0.0247192,
1.014,-0.0439453,
1.0145,-0.0602722,
1.015,-0.0865173,
1.0155,-0.0990295,
1.016,-0.0830078,
1.0165,-0.0601196,
1.017,-0.0337219,
1.0175,-0.00579834,
1.018,0.00457764,
1.0185,-0.0143433,
1.019,-0.0672913,
1.0195,-0.134735,
1.02,-0.184479,
1.0205,-0.198975,
1.021,-0.178833,
1.0215,-0.139618,
1.022,-0.0868225,
1.0225,-0.0245667,
1.023,0.0292969,
1.0235,0.0588989,
1.024,0.0547791,
1.0245,0.0242615,
1.025,0.00656128,
1.0255,0.0175476,
1.026,0.0454712,
1.0265,0.0772095,
1.027,0.109711,
1.0275,0.149689,
1.028,0.19104,
1.0285,0.218353,
1.029,0.216675,
1.0295,0.177307,
1.03,0.109863,
1.0305,0.0418091,
1.031,-0.0187683,
1.0315,-0.06073,
1.032,-0.0717163,
1.0325,-0.0653076,
1.033,-0.0579834,
1.0335,-0.0479126,
1.034,-0.0378418,
1.0345,-0.0350952,
1.035,-0.0378418,
1.0355,-0.0404358,
1.036,-0.0436401,
1.0365,-0.0476074,
1.037,-0.0471497,
1.0375,-0.0485229,
1.038,-0.0520325,
1.0385,-0.0468445,
1.039,-0.0288391,
1.0395,-0.0117493,
1.04,-0.0131226,
1.0405,-0.025177,
1.041,-0.0358582,
1.0415,-0.0442505,
1.042,-0.0540161,
1.0425,-0.0653076,
1.043,-0.0732422,
1.0435,-0.0778198,
1.044,-0.0810242,
1.0445,-0.0784302,
1.045,-0.0701904,
1.0455,-0.0593567,
1.046,-0.0526428,
1.0465,-0.0532532,
1.047,-0.0569153,
1.0475,-0.0576782,
1.048,-0.0595093,
1.0485,-0.0610352,
1.049,-0.0598145,
1.0495,-0.0590515,
1.05,-0.0601196,
1.0505,-0.0595093,
1.051,-0.0534058,
1.0515,-0.0437927,
1.052,-0.03479,
1.0525,-0.037384,
1.053,-0.0468445,
1.0535,-0.0506592,
1.054,-0.0439453,
1.0545,-0.0230408,
1.055,0.00732422,
1.0555,0.0227356,
1.056,0.0119019,
1.0565,0,
1.057,0.00442505,
1.0575,0.0146484,
1.058,0.0196838,
1.0585,0.0210571,
1.059,0.0239563,
1.0595,0.0375366,
1.06,0.0634766,
1.0605,0.0968933,
1.061,0.135345,
1.0615,0.172119,
1.062,0.191498,
1.0625,0.170135,
1.063,0.114899,
1.0635,0.059967,
1.064,0.0224304,
1.0645,-0.00579834,
1.065,-0.0283813,
1.0655,-0.0466919,
1.066,-0.0588989,
1.0665,-0.0611877,
1.067,-0.0559998,
1.0675,-0.0460815,
1.068,-0.0326538,
1.0685,-0.0192261,
1.069,-0.0144958,
1.0695,-0.018158,
1.07,-0.0209045,
1.0705,-0.0196838,
1.071,-0.0299072,
1.0715,-0.0553894,
1.072,-0.0839233,
1.0725,-0.096283,
1.073,-0.0868225,
1.0735,-0.0714111,
1.074,-0.0596619,
1.0745,-0.0547791,
1.075,-0.0514221,
1.0755,-0.0444031,
1.076,-0.0421143,
1.0765,-0.0614929,
1.077,-0.121002,
1.0775,-0.215912,
1.078,-0.309601,
1.0785,-0.353088,
1.079,-0.332031,
1.0795,-0.270386,
1.08,-0.200806,
1.0805,-0.126495,
1.081,-0.0489807,
1.0815,0.0190735,
1.082,0.0595093,
1.0825,0.0689697,
1.083,0.0613403,
1.0835,0.0506592,
1.084,0.0260925,
1.0845,-0.00869751,
1.085,-0.0128174,
1.0855,0.0268555,
1.086,0.0880432,
1.0865,0.145569,
1.087,0.172577,
1.0875,0.174561,
1.088,0.167389,
1.0885,0.156555,
1.089,0.145721,
1.0895,0.146942,
1.09,0.162354,
1.0905,0.187378,
1.091,0.214539,
1.0915,0.232391,
1.092,0.236359,
1.0925,0.233459,
1.093,0.233612,
1.0935,0.249634,
1.094,0.283661,
1.0945,0.323639,
1.095,0.350189,
1.0955,0.339355,
1.096,0.278778,
1.0965,0.188293,
1.097,0.106049,
1.0975,0.0390625,
1.098,-0.0167847,
1.0985,-0.0428772,
1.099,-0.0422668,
1.0995,-0.0372314,
1.1,-0.0440979,
1.1005,-0.0645447,
1.101,-0.090332,
1.1015,-0.10025,
1.102,-0.0886536,
1.1025,-0.0737,
1.103,-0.0653076,
1.1035,-0.0611877,
1.104,-0.0608826,
1.1045,-0.067749,
1.105,-0.0775146,
1.1055,-0.0805664,
1.106,-0.0796509,
1.1065,-0.0811768,
1.107,-0.0843811,
1.1075,-0.0871277,
1.108,-0.0933838,
1.1085,-0.101318,
1.109,-0.103912,
1.1095,-0.104828,
1.11,-0.103607,
1.1105,-0.100861,
1.111,-0.0917053,
1.1115,-0.0715637,
1.112,-0.0486755,
1.1125,-0.0317383,
1.113,-0.0253296,
1.1135,-0.0216675,
1.114,-0.01297,
1.1145,-0.00244141,
1.115,0.00183105,
1.1155,0.000762939,
1.116,-0.00244141,
1.1165,-0.00289917,
1.117,0.00396729,
1.1175,0.0186157,
1.118,0.0382996,
1.1185,0.0532532,
1.119,0.067749,
1.1195,0.0965881,
1.12,0.150909,
1.1205,0.214844,
1.121,0.249786,
1.1215,0.21698,
1.122,0.118713,
1.1225,0.00457764,
1.123,-0.0871277,
1.1235,-0.144043,
1.124,-0.162048,
1.1245,-0.143585,
1.125,-0.119476,
1.1255,-0.123138,
1.126,-0.13855,
1.1265,-0.141907,
1.127,-0.137787,
1.1275,-0.132599,
1.128,-0.124969,
1.1285,-0.11673,
1.129,-0.110168,
1.1295,-0.103912,
1.13,-0.101776,
1.1305,-0.108337,
1.131,-0.118713,
1.1315,-0.122833,
1.132,-0.119324,
1.1325,-0.116577,
1.133,-0.114746,
1.1335,-0.109711,
1.134,-0.101013,
1.1345,-0.0964355,
1.135,-0.10849,
1.1355,-0.134583,
1.136,-0.156403,
1.1365,-0.158234,
1.137,-0.137177,
1.1375,-0.0985718,
1.138,-0.0453186,
1.1385,0.0204468,
1.139,0.0862122,
1.1395,0.143127,
1.14,0.181274,
1.1405,0.198212,
1.141,0.202789,
1.1415,0.214386,
1.142,0.245056,
1.1425,0.287628,
1.143,0.32196,
1.1435,0.340576,
1.144,0.348358,
1.1445,0.335846,
1.145,0.304108,
1.1455,0.252686,
1.146,0.182953,
1.1465,0.119324,
1.147,0.0843811,
1.1475,0.0759888,
1.148,0.0527954,
1.1485,-0.0163269,
1.149,-0.108032,
1.1495,-0.186768,
1.15,-0.246582,
1.1505,-0.292206,
1.151,-0.317383,
1.1515,-0.324554,
1.152,-0.322113,
1.1525,-0.305481,
1.153,-0.271759,
1.1535,-0.237579,
1.154,-0.219116,
1.1545,-0.211182,
1.155,-0.196533,
1.1555,-0.168457,
1.156,-0.13092,
1.1565,-0.0888062,
1.157,-0.0471497,
1.1575,-0.0187683,
1.158,-0.00900269,
1.1585,-0.00396729,
1.159,0.00946045,
1.1595,0.0254822,
1.16,0.0401306,
1.1605,0.0509644,
1.161,0.0520325,
1.1615,0.0509644,
1.162,0.0582886,
1.1625,0.0775146,
1.163,0.0918579,
1.1635,0.0866699,
1.164,0.0776672,
1.1645,0.0798035,
1.165,0.0810242,
1.1655,0.0700378,
1.166,0.0544739,
1.1665,0.0454712,
1.167,0.0579834,
1.1675,0.0927734,
1.168,0.129547,
1.1685,0.13855,
1.169,0.124207,
1.1695,0.112762,
1.17,0.110474,
1.1705,0.106964,
1.171,0.0926208,
1.1715,0.0756836,
1.172,0.065918,
1.1725,0.059967,
1.173,0.0491333,
1.1735,0.0285339,
1.174,0.00427246,
1.1745,-0.00717163,
1.175,-0.00762939,
1.1755,-0.00610352,
1.176,-0.00915527,
1.1765,-0.0167847,
1.177,-0.032959,
1.1775,-0.0532532,
1.178,-0.078125,
1.1785,-0.10849,
1.179,-0.13443,
1.1795,-0.165863,
1.18,-0.216827,
1.1805,-0.28244,
1.181,-0.341492,
1.1815,-0.372925,
1.182,-0.380249,
1.1825,-0.373993,
1.183,-0.336151,
1.1835,-0.257111,
1.184,-0.154419,
1.1845,-0.0350952,
1.185,0.0959778,
1.1855,0.205994,
1.186,0.283356,
1.1865,0.323029,
1.187,0.323944,
1.1875,0.314636,
1.188,0.308075,
1.1885,0.310211,
1.189,0.331726,
1.1895,0.349731,
1.19,0.152283,
1.1905,-0.0527954,
1.191,-0.0993347,
1.1915,-0.0646973,
1.192,-0.0126648,
1.1925,0.0312805,
1.193,0.0790405,
1.1935,0.111542,
1.194,0.109406,
1.1945,0.100555,
1.195,0.098877,
1.1955,0.098877,
1.196,0.0993347,
1.1965,0.0991821,
1.197,0.0990295,
1.1975,0.125885,
1.198,0.178223,
1.1985,0.208435,
1.199,0.184937,
1.1995,0.128479,
1.2,0.0822449,
1.2005,0.0505066,
1.201,0.0213623,
1.2015,0.000152588,
1.202,-0.0201416,
1.2025,-0.0457764,
1.203,-0.075531,
1.2035,-0.101929,
1.204,-0.108032,
1.2045,-0.101013,
1.205,-0.105743,
1.2055,-0.119324,
1.206,-0.119476,
1.2065,-0.111542,
1.207,-0.116425,
1.2075,-0.129089,
1.208,-0.129852,
1.2085,-0.117798,
1.209,-0.102692,
1.2095,-0.0834656,
1.21,-0.0643921,
1.2105,-0.0514221,
1.211,-0.0430298,
1.2115,-0.0366211,
1.212,-0.0311279,
1.2125,-0.0119019,
1.213,0.0302124,
1.2135,0.0636292,
1.214,0.0694275,
1.2145,0.0469971,
1.215,0.0123596,
1.2155,-0.0169373,
1.216,-0.0491333,
1.2165,-0.09552,
1.217,-0.148315,
1.2175,-0.188599,
1.218,-0.206909,
1.2185,-0.213165,
1.219,-0.210114,
1.2195,-0.191956,
1.22,-0.181274,
1.2205,-0.19455,
1.221,-0.204773,
1.2215,-0.184937,
1.222,-0.143433,
1.2225,-0.0991821,
1.223,-0.0631714,
1.2235,-0.0473022,
1.224,-0.0361633,
1.2245,-0.00320435,
1.225,0.0575256,
1.2255,0.105896,
1.226,0.125427,
1.2265,0.130463,
1.227,0.122833,
1.2275,0.129852,
1.228,0.142822,
1.2285,0.111542,
1.229,0.0230408,
1.2295,-0.100403,
1.23,-0.220642,
1.2305,-0.309448,
1.231,-0.375671,
1.2315,-0.422211,
1.232,-0.441742,
1.2325,-0.431519,
1.233,-0.398865,
1.2335,-0.344543,
1.234,-0.279999,
1.2345,-0.223694,
1.235,-0.17868,
1.2355,-0.119324,
1.236,-0.0195313,
1.2365,0.133667,
1.237,0.307617,
1.2375,0.452576,
1.238,0.536041,
1.2385,0.552216,
1.239,0.518646,
1.2395,0.45639,
1.24,0.397034,
1.2405,0.373077,
1.241,0.363617,
1.2415,0.345306,
1.242,0.31311,
1.2425,0.261688,
1.243,0.198669,
1.2435,0.107727,
1.244,0.00259399,
1.2445,-0.0473022,
1.245,-0.0192261,
1.2455,0.00900269,
1.246,-0.0320435,
1.2465,-0.09552,
1.247,-0.145874,
1.2475,-0.22049,
1.248,-0.318146,
1.2485,-0.391541,
1.249,-0.426178,
1.2495,-0.423126,
1.25,-0.39032,
1.2505,-0.356445,
1.251,-0.348358,
1.2515,-0.345306,
1.252,-0.329895,
1.2525,-0.321808,
1.253,-0.322723,
1.2535,-0.310974,
1.254,-0.276489,
1.2545,-0.2211,
1.255,-0.167542,
1.2555,-0.125275,
1.256,-0.0550842,
1.2565,0.0888062,
1.257,0.283203,
1.2575,0.45929,
1.258,0.542297,
1.2585,0.549469,
1.259,0.565186,
1.2595,0.59494,
1.26,0.597229,
1.2605,0.552826,
1.261,0.447998,
1.2615,0.305328,
1.262,0.176392,
1.2625,0.0764465,
1.263,-0.00244141,
1.2635,-0.0669861,
1.264,-0.107422,
1.2645,-0.106506,
1.265,-0.0772095,
1.2655,-0.0382996,
1.266,0.0140381,
1.2665,0.0639343,
1.267,0.0773621,
1.2675,0.0939941,
1.268,0.149384,
1.2685,0.223389,
1.269,0.284729,
1.2695,0.298309,
1.27,0.239716,
1.2705,0.155029,
1.271,0.101471,
1.2715,0.0808716,
1.272,0.0712585,
1.2725,0.0608826,
1.273,0.0294495,
1.2735,-0.0305176,
1.274,-0.0906372,
1.2745,-0.1091,
1.275,-0.067749,
1.2755,-0.0190735,
1.276,-0.0151062,
1.2765,-0.0302124,
1.277,-0.037384,
1.2775,-0.0418091,
1.278,-0.0421143,
1.2785,-0.027771,
1.279,-0.038147,
1.2795,-0.180664,
1.28,-0.427399,
1.2805,-0.61142,
1.281,-0.656128,
1.2815,-0.598755,
1.282,-0.535889,
1.2825,-0.515594,
1.283,-0.497284,
1.2835,-0.449829,
1.284,-0.395203,
1.2845,-0.3479,
1.285,-0.319214,
1.2855,-0.304871,
1.286,-0.290222,
1.2865,-0.289764,
1.287,-0.271454,
1.2875,-0.165558,
1.288,0.0418091,
1.2885,0.317078,
1.289,0.54245,
1.2895,0.608368,
1.29,0.522766,
1.2905,0.349579,
1.291,0.157166,
1.2915,0.0234985,
1.292,-0.0123596,
1.2925,-0.00106812,
1.293,-0.00335693,
1.2935,-0.0350952,
1.294,-0.0808716,
1.2945,-0.124817,
1.295,-0.160217,
1.2955,-0.2034,
1.296,-0.239105,
1.2965,-0.282745,
1.297,-0.307312,
1.2975,-0.204926,
1.298,0.0454712,
1.2985,0.351257,
1.299,0.53421,
1.2995,0.495453,
1.3,0.30304,
1.3005,0.137329,
1.301,0.0805664,
1.3015,0.0714111,
1.302,0.0296021,
1.3025,-0.0808716,
1.303,-0.240784,
1.3035,-0.38208,
1.304,-0.440826,
1.3045,-0.392914,
1.305,-0.248718,
1.3055,-0.0531006,
1.306,0.21286,
1.3065,0.582733,
1.307,0.919342,
1.3075,1.0408,
1.308,0.957336,
1.3085,0.720367,
1.309,0.408478,
1.3095,0.198212,
1.31,0.121307,
1.3105,0.0765991,
1.311,0.0865173,
1.3115,0.156403,
1.312,0.122528,
1.3125,-0.0994873,
1.313,-0.355835,
1.3135,-0.421906,
1.314,-0.341797,
1.3145,-0.348206,
1.315,-0.482025,
1.3155,-0.618591,
1.316,-0.709534,
1.3165,-0.752258,
1.317,-0.692902,
1.3175,-0.536346,
1.318,-0.366669,
1.3185,-0.206757,
1.319,0.0137329,
1.3195,0.35675,
1.32,0.738068,
1.3205,1.04202,
1.321,1.26312,
1.3215,1.43463,
1.322,1.50421,
1.3225,1.35651,
1.323,1.01227,
1.3235,0.768433,
1.324,0.830688,
1.3245,1.03027,
1.325,1.04965,
1.3255,0.799866,
1.326,0.404968,
1.3265,-0.0686646,
1.327,-0.554504,
1.3275,-0.808716,
1.328,-0.81543,
1.3285,-0.834045,
1.329,-0.912018,
1.3295,-0.886993,
1.33,-0.710602,
1.3305,-0.491943,
1.331,-0.314331,
1.3315,-0.175629,
1.332,-0.0332642,
1.3325,0.155792,
1.333,0.440063,
1.3335,0.856934,
1.334,1.26343,
1.3345,1.39969,
1.335,1.20193,
1.3355,0.945435,
1.336,0.818176,
1.3365,0.726318,
1.337,0.579224,
1.3375,0.401764,
1.338,0.245056,
1.3385,0.131226,
1.339,0.0119019,
1.3395,-0.149231,
1.34,-0.270844,
1.3405,-0.306091,
1.341,-0.313568,
1.3415,-0.322723,
1.342,-0.312805,
1.3425,-0.283356,
1.343,-0.266571,
1.3435,-0.288849,
1.344,-0.322418,
1.3445,-0.332642,
1.345,-0.310364,
1.3455,-0.265808,
1.346,-0.245209,
1.3465,-0.278625,
1.347,-0.353088,
1.3475,-0.450134,
1.348,-0.528564,
1.3485,-0.529327,
1.349,-0.483398,
1.3495,-0.495605,
1.35,-0.578918,
1.3505,-0.639038,
1.351,-0.623932,
1.3515,-0.598907,
1.352,-0.59494,
1.3525,-0.599518,
1.353,-0.614319,
1.3535,-0.62973,
1.354,-0.632782,
1.3545,-0.630341,
1.355,-0.666199,
1.3555,-0.736237,
1.356,-0.785522,
1.3565,-0.806732,
1.357,-0.809479,
1.3575,-0.772552,
1.358,-0.687103,
1.3585,-0.570984,
1.359,-0.41748,
1.3595,-0.278473,
1.36,-0.220032,
1.3605,-0.150909,
1.361,0.0169373,
1.3615,0.21698,
1.362,0.269623,
1.3625,0.150452,
1.363,0.0271606,
1.3635,0.0263977,
1.364,0.123596,
1.3645,0.225983,
1.365,0.284729,
1.3655,0.318298,
1.366,0.349274,
1.3665,0.37735,
1.367,0.432281,
1.3675,0.545654,
1.368,0.66864,
1.3685,0.623474,
1.369,0.335846,
1.3695,0.0814819,
1.37,0.0398254,
1.3705,0.0888062,
1.371,0.110168,
1.3715,0.12558,
1.372,0.155029,
1.3725,0.163727,
1.373,0.131989,
1.3735,0.0593567,
1.374,-0.00823975,
1.3745,0.00656128,
1.375,0.133362,
1.3755,0.321655,
1.376,0.486755,
1.3765,0.596771,
1.377,0.640259,
1.3775,0.549164,
1.378,0.301666,
1.3785,0.0958252,
1.379,0.0424194,
1.3795,-0.00595093,
1.38,-0.121002,
1.3805,-0.246887,
1.381,-0.350037,
1.3815,-0.431519,
1.382,-0.485535,
1.3825,-0.514221,
1.383,-0.647583,
1.3835,-0.969543,
1.384,-1.36368,
1.3845,-1.69418,
1.385,-2.06894,
1.3855,-2.48505,
1.386,-2.63077,
1.3865,-2.39578,
1.387,-2.03186,
1.3875,-1.6835,
1.388,-1.24481,
1.3885,-0.67276,
1.389,-0.123596,
1.3895,0.247192,
1.39,0.558319,
1.3905,1.01151,
1.391,1.61774,
1.3915,2.22336,
1.392,2.62741,
1.3925,2.66876,
1.393,2.33124,
1.3935,1.92947,
1.394,1.82053,
1.3945,1.96213,
1.395,2.0163,
1.3955,1.80328,
1.396,1.49918,
1.3965,1.34964,
1.397,1.32111,
1.3975,1.22971,
1.398,1.06201,
1.3985,0.905457,
1.399,0.749969,
1.3995,0.587616,
1.4,0.465393,
1.4005,0.403748,
1.401,0.326691,
1.4015,0.19104,
1.402,0.0491333,
1.4025,-0.0828552,
1.403,-0.192261,
1.4035,-0.235443,
1.404,-0.246429,
1.4045,-0.346222,
1.405,-0.522919,
1.4055,-0.648956,
1.406,-0.698242,
1.4065,-0.713196,
1.407,-0.727386,
1.4075,-0.754395,
1.408,-0.775757,
1.4085,-0.809326,
1.409,-0.907898,
1.4095,-1.16013,
1.41,-1.4978,
1.4105,-1.70166,
1.411,-1.67908,
1.4115,-1.47171,
1.412,-1.19492,
1.4125,-0.977783,
1.413,-0.872345,
1.4135,-0.815887,
1.414,-0.831757,
1.4145,-0.972748,
1.415,-1.15982,
1.4155,-1.36368,
1.416,-1.51321,
1.4165,-1.26694,
1.417,-0.577545,
1.4175,0.152893,
1.418,0.6633,
1.4185,0.971069,
1.419,1.1676,
1.4195,1.26602,
1.42,1.26053,
1.4205,1.24954,
1.421,1.33759,
1.4215,1.49261,
1.422,1.65054,
1.4225,1.79352,
1.423,1.9455,
1.4235,2.10342,
1.424,2.20261,
1.4245,2.14142,
1.425,1.8306,
1.4255,1.34247,
1.426,0.857544,
1.4265,0.506897,
1.427,0.314026,
1.4275,0.247192,
1.428,0.213776,
1.4285,0.102997,
1.429,-0.0674438,
1.4295,-0.237427,
1.43,-0.501556,
1.4305,-0.791779,
1.431,-0.974884,
1.4315,-1.06979,
1.432,-1.09665,
1.4325,-1.05362,
1.433,-0.956116,
1.4335,-0.84259,
1.434,-0.741882,
1.4345,-0.645905,
1.435,-0.568695,
1.4355,-0.517883,
1.436,-0.476074,
1.4365,-0.424194,
1.437,-0.364838,
1.4375,-0.317383,
1.438,-0.268097,
1.4385,-0.226898,
1.439,-0.358124,
1.4395,-0.769501,
1.44,-1.4534,
1.4405,-2.12448,
1.441,-2.43454,
1.4415,-2.36252,
1.442,-2.06451,
1.4425,-1.63132,
1.443,-1.11282,
1.4435,-0.569305,
1.444,-0.0668335,
1.4445,0.38269,
1.445,0.765991,
1.4455,1.07361,
1.446,1.5094,
1.4465,2.19589,
1.447,2.80334,
1.4475,2.91901,
1.448,2.63855,
1.4485,2.44293,
1.449,2.40326,
1.4495,2.15668,
1.45,1.58768,
1.4505,1.00967,
1.451,0.65094,
1.4515,0.42923,
1.452,0.240631,
1.4525,0.0650024,
1.453,-0.115509,
1.4535,-0.245667,
1.454,-0.286713,
1.4545,-0.292664,
1.455,-0.335236,
1.4555,-0.487823,
1.456,-0.726318,
1.4565,-0.971527,
1.457,-1.23505,
1.4575,-1.50024,
1.458,-1.66626,
1.4585,-1.65512,
1.459,-1.4769,
1.4595,-1.2146,
1.46,-0.94635,
1.4605,-0.738373,
1.461,-0.643463,
1.4615,-0.574493,
1.462,-0.383301,
1.4625,-0.0723267,
1.463,0.269318,
1.4635,0.584259,
1.464,0.851593,
1.4645,1.09268,
1.465,1.23917,
1.4655,1.13968,
1.466,0.832214,
1.4665,0.522003,
1.467,0.3479,
1.4675,0.301361,
1.468,0.318909,
1.4685,0.343323,
1.469,0.234528,
1.4695,0.0114441,
1.47,-0.136719,
1.4705,-0.227509,
1.471,-0.364532,
1.4715,-0.444794,
1.472,-0.375214,
1.4725,-0.211334,
1.473,-0.0384521,
1.4735,0.0857544,
1.474,0.117188,
1.4745,0.0933838,
1.475,0.0593567,
1.4755,0.030365,
1.476,-0.000762939,
1.4765,-0.0366211,
1.477,-0.0436401,
1.4775,-0.00152588,
1.478,0.0422668,
1.4785,-0.052948,
1.479,-0.37262,
1.4795,-0.719757,
1.48,-0.870361,
1.4805,-0.832367,
1.481,-0.768585,
1.4815,-0.804138,
1.482,-0.900421,
1.4825,-0.972443,
1.483,-0.961456,
1.4835,-0.865021,
1.484,-0.709381,
1.4845,-0.524292,
1.485,-0.350952,
1.4855,-0.198517,
1.486,-0.0273132,
1.4865,0.123291,
1.487,0.0280762,
1.4875,-0.32074,
1.488,-0.612335,
1.4885,-0.536652,
1.489,-0.144196,
1.4895,0.246887,
1.49,0.44632,
1.4905,0.463104,
1.491,0.469513,
1.4915,0.56366,
1.492,0.682983,
1.4925,0.788574,
1.493,0.929108,
1.4935,1.04324,
1.494,1.10168,
1.4945,1.19644,
1.495,1.33163,
1.4955,1.37604,
1.496,1.26434,
1.4965,1.08871,
1.497,0.923004,
1.4975,0.701141,
1.498,0.426788,
1.4985,0.195618,
1.499,0.0439453,
1.4995,-0.0575256,
1.5,-0.106964,
1.5005,-0.0907898,
1.501,-0.0505066,
1.5015,-0.0521851,
1.502,-0.0842285,
1.5025,-0.0770569,
1.503,-0.0332642,
1.5035,0.00320435,
1.504,0.0286865,
1.5045,0.0447083,
1.505,0.0312805,
1.5055,-0.0418091,
1.506,-0.128937,
1.5065,-0.169678,
1.507,-0.183868,
1.5075,-0.200806,
1.508,-0.192566,
1.5085,-0.171204,
1.509,-0.192261,
1.5095,-0.240021,
1.51,-0.259399,
1.5105,-0.241241,
1.511,-0.222778,
1.5115,-0.21637,
1.512,-0.22644,
1.5125,-0.277252,
1.513,-0.416718,
1.5135,-0.59845,
1.514,-0.712585,
1.5145,-0.804901,
1.515,-1.00327,
1.5155,-1.29059,
1.516,-1.56647,
1.5165,-1.66946,
1.517,-1.55594,
1.5175,-1.28494,
1.518,-0.951233,
1.5185,-0.647125,
1.519,-0.387115,
1.5195,-0.149841,
1.52,-0.0415039,
1.5205,-0.209198,
1.521,-0.451355,
1.5215,-0.5159,
1.522,-0.37323,
1.5225,-0.0891113,
1.523,0.291595,
1.5235,0.702667,
1.524,1.02905,
1.5245,1.11572,
1.525,0.933685,
1.5255,0.700836,
1.526,0.677338,
1.5265,0.904388,
1.527,1.21307,
1.5275,1.40442,
1.528,1.51672,
1.5285,1.71738,
1.529,1.96976,
1.5295,2.00104,
1.53,1.62415,
1.5305,1.02402,
1.531,0.538025,
1.5315,0.317078,
1.532,0.196533,
1.5325,-0.0382996,
1.533,-0.349579,
1.5335,-0.713806,
1.534,-1.18729,
1.5345,-1.66656,
1.535,-2.02698,
1.5355,-2.16171,
1.536,-2.03934,
1.5365,-1.78711,
1.537,-1.50803,
1.5375,-1.20331,
1.538,-0.936737,
1.5385,-0.740509,
1.539,-0.531616,
1.5395,-0.302429,
1.54,-0.0909424,
1.5405,0.185089,
1.541,0.592651,
1.5415,1.02097,
1.542,1.35147,
1.5425,1.61453,
1.543,1.80344,
1.5435,1.82739,
1.544,1.6687,
1.5445,1.44104,
1.545,1.31363,
1.5455,1.24344,
1.546,1.04416,
1.5465,0.699768,
1.547,0.39856,
1.5475,0.26123,
1.548,0.229645,
1.5485,0.27771,
1.549,0.415955,
1.5495,0.558014,
1.55,0.510254,
1.5505,0.252533,
1.551,-0.0144958,
1.5515,-0.151367,
1.552,-0.176544,
1.5525,-0.176239,
1.553,-0.21286,
1.5535,-0.261383,
1.554,-0.260773,
1.5545,-0.175323,
1.555,-0.0244141,
1.5555,0.144196,
1.556,0.242615,
1.5565,0.195465,
1.557,0.0386047,
1.5575,-0.190277,
1.558,-0.445251,
1.5585,-0.623322,
1.559,-0.686493,
1.5595,-0.68161,
1.56,-0.629883,
1.5605,-0.563965,
1.561,-0.553436,
1.5615,-0.611267,
1.562,-0.668793,
1.5625,-0.705414,
1.563,-0.717316,
1.5635,-0.71106,
1.564,-0.73822,
1.5645,-0.772552,
1.565,-0.736847,
1.5655,-0.6073,
1.566,-0.433502,
1.5665,-0.323639,
1.567,-0.379639,
1.5675,-0.634613,
1.568,-0.843658,
1.5685,-0.779724,
1.569,-0.585022,
1.5695,-0.463562,
1.57,-0.401154,
1.5705,-0.267029,
1.571,-0.038147,
1.5715,0.17868,
1.572,0.22522,
1.5725,0.0906372,
1.573,0.0262451,
1.5735,0.210724,
1.574,0.473633,
1.5745,0.599518,
1.575,0.643616,
1.5755,0.734558,
1.576,0.887604,
1.5765,1.05728,
1.577,1.21338,
1.5775,1.3031,
1.578,1.22726,
1.5785,1.00845,
1.579,0.789795,
1.5795,0.638123,
1.58,0.484924,
1.5805,0.336761,
1.581,0.299835,
1.5815,0.365906,
1.582,0.321503,
1.5825,0.0871277,
1.583,-0.136108,
1.5835,-0.239868,
1.584,-0.289154,
1.5845,-0.315857,
1.585,-0.324707,
1.5855,-0.33493,
1.586,-0.355072,
1.5865,-0.36972,
1.587,-0.36438,
1.5875,-0.343323,
1.588,-0.323639,
1.5885,-0.306091,
1.589,-0.285339,
1.5895,-0.301971,
1.59,-0.362244,
1.5905,-0.404053,
1.591,-0.491943,
1.5915,-0.675201,
1.592,-0.818024,
1.5925,-0.845642,
1.593,-0.800018,
1.5935,-0.789948,
1.594,-1.11984,
1.5945,-1.81107,
1.595,-2.32193,
1.5955,-2.32758,
1.596,-2.03659,
1.5965,-1.70746,
1.597,-1.44867,
1.5975,-1.32645,
1.598,-1.29837,
1.5985,-1.29501,
1.599,-1.29578,
1.5995,-1.29639,
1.6,0.302887,
1.6005,1.83807,
1.601,2.31461,
1.6015,2.3909,
1.602,2.28088,
1.6025,2.00623,
1.603,1.69846,
1.6035,1.47247,
1.604,1.30295,
1.6045,1.16882,
1.605,1.10306,
1.6055,1.0878,
1.606,1.08612,
1.6065,1.08673,
1.607,1.08673,
1.6075,1.00403,
1.608,0.832062,
1.6085,0.670013,
1.609,0.574799,
1.6095,0.513611,
1.61,0.41687,
1.6105,0.291748,
1.611,0.173187,
1.6115,0.0741577,
1.612,-0.00366211,
1.6125,-0.0746155,
1.613,-0.144501,
1.6135,-0.208588,
1.614,-0.28244,
1.6145,-0.370636,
1.615,-0.475769,
1.6155,-0.590363,
1.616,-0.664368,
1.6165,-0.677795,
1.617,-0.683594,
1.6175,-0.709229,
1.618,-0.762024,
1.6185,-0.818481,
1.619,-0.82962,
1.6195,-0.817719,
1.62,-0.828247,
1.6205,-0.977478,
1.621,-1.22864,
1.6215,-1.34949,
1.622,-1.22223,
1.6225,-0.939941,
1.623,-0.67337,
1.6235,-0.536499,
1.624,-0.4422,
1.6245,-0.273132,
1.625,-0.0752258,
1.6255,0.124664,
1.626,0.31189,
1.6265,0.412598,
1.627,0.395966,
1.6275,0.27298,
1.628,0.214844,
1.6285,0.325623,
1.629,0.311432,
1.6295,0.0541687,
1.63,-0.174561,
1.6305,-0.198517,
1.631,-0.11322,
1.6315,-0.140228,
1.632,-0.231934,
1.6325,-0.192108,
1.633,0.00473022,
1.6335,0.265808,
1.634,0.538483,
1.6345,0.830383,
1.635,1.147,
1.6355,1.37695,
1.636,1.35498,
1.6365,1.03531,
1.637,0.446167,
1.6375,-0.391693,
1.638,-1.06339,
1.6385,-1.32782,
1.639,-1.40198,
1.6395,-1.41434,
1.64,-1.28204,
1.6405,-0.977173,
1.641,-0.625305,
1.6415,-0.366821,
1.642,-0.200195,
1.6425,0.0250244,
1.643,0.315094,
1.6435,0.574646,
1.644,0.811157,
1.6445,1.06949,
1.645,1.31714,
1.6455,1.42578,
1.646,1.37283,
1.6465,1.24908,
1.647,1.06934,
1.6475,0.686951,
1.648,0.133057,
1.6485,-0.370178,
1.649,-0.662842,
1.6495,-0.749512,
1.65,-0.693817,
1.6505,-0.521698,
1.651,-0.346222,
1.6515,-0.245819,
1.652,-0.138702,
1.6525,-0.0680542,
1.653,-0.0772095,
1.6535,-0.0306702,
1.654,0.0959778,
1.6545,0.241547,
1.655,0.239716,
1.6555,0.121307,
1.656,0.0233459,
1.6565,-0.0857544,
1.657,-0.279999,
1.6575,-0.515289,
1.658,-0.641785,
1.6585,-0.602417,
1.659,-0.465088,
1.6595,-0.211945,
1.66,0.106201,
1.6605,0.210114,
1.661,0,
1.6615,-0.230713,
1.662,-0.150909,
1.6625,0.138702,
1.663,0.349274,
1.6635,0.484467,
1.664,0.73288,
1.6645,1.07788,
1.665,1.35544,
1.6655,1.41663,
1.666,1.27563,
1.6665,1.12183,
1.667,1.03302,
1.6675,0.937805,
1.668,0.719147,
1.6685,0.377808,
1.669,0.0241089,
1.6695,-0.218658,
1.67,-0.253143,
1.6705,-0.124817,
1.671,0.0137329,
1.6715,0.0967407,
1.672,0.0535583,
1.6725,-0.137329,
1.673,-0.352783,
1.6735,-0.466156,
1.674,-0.455322,
1.6745,-0.368195,
1.675,-0.276337,
1.6755,-0.233307,
1.676,-0.254669,
1.6765,-0.334015,
1.677,-0.72052,
1.6775,-1.39923,
1.678,-1.8013,
1.6785,-1.76575,
1.679,-1.6008,
1.6795,-1.3826,
1.68,-1.05423,
1.6805,-0.729523,
1.681,-0.506439,
1.6815,-0.344238,
1.682,-0.293274,
1.6825,-0.336609,
1.683,-0.249023,
1.6835,0.0614929,
1.684,0.488586,
1.6845,0.937195,
1.685,1.26419,
1.6855,1.28311,
1.686,1.09482,
1.6865,0.982208,
1.687,0.963898,
1.6875,0.918121,
1.688,0.896606,
1.6885,0.98053,
1.689,0.995178,
1.6895,0.839691,
1.69,0.610046,
1.6905,0.389404,
1.691,0.193634,
1.6915,-0.0270081,
1.692,-0.28717,
1.6925,-0.483856,
1.693,-0.552368,
1.6935,-0.599823,
1.694,-0.710754,
1.6945,-0.794983,
1.695,-0.767822,
1.6955,-0.654907,
1.696,-0.53009,
1.6965,-0.423737,
1.697,-0.302734,
1.6975,-0.148773,
1.698,0.0192261,
1.6985,0.146942,
1.699,0.173492,
1.6995,-0.0857544,
1.7,-0.594635,
1.7005,-0.963135,
1.701,-1.00479,
1.7015,-0.87677,
1.702,-0.732117,
1.7025,-0.61676,
1.703,-0.545807,
1.7035,-0.509186,
1.704,-0.48996,
1.7045,-0.527649,
1.705,-0.61203,
1.7055,-0.670471,
1.706,-0.587463,
1.7065,-0.36911,
1.707,-0.175018,
1.7075,-0.0442505,
1.708,-0.0167847,
1.7085,-0.0598145,
1.709,-0.148926,
1.7095,-0.233154,
1.71,-0.15564,
1.7105,0.119934,
1.711,0.557251,
1.7115,0.98114,
1.712,1.14273,
1.7125,1.11465,
1.713,1.16623,
1.7135,1.35635,
1.714,1.46606,
1.7145,1.31744,
1.715,1.07239,
1.7155,0.967102,
1.716,0.974579,
1.7165,0.953979,
1.717,0.903625,
1.7175,0.863037,
1.718,0.767975,
1.7185,0.578156,
1.719,0.317993,
1.7195,0.0769043,
1.72,-0.108185,
1.7205,-0.272522,
1.721,-0.40741,
1.7215,-0.454102,
1.722,-0.419312,
1.7225,-0.383453,
1.723,-0.396881,
1.7235,-0.433807,
1.724,-0.446167,
1.7245,-0.460663,
1.725,-0.527649,
1.7255,-0.614319,
1.726,-0.691376,
1.7265,-0.726929,
1.727,-0.691376,
1.7275,-0.587921,
1.728,-0.490265,
1.7285,-0.445557,
1.729,-0.423584,
1.7295,-0.35553,
1.73,-0.246277,
1.7305,-0.252686,
1.731,-0.377197,
1.7315,-0.49118,
1.732,-0.641785,
1.7325,-0.72464,
1.733,-0.500031,
1.7335,-0.101471,
1.734,0.170135,
1.7345,0.29541,
1.735,0.333405,
1.7355,0.328369,
1.736,0.365601,
1.7365,0.487671,
1.737,0.66925,
1.7375,0.879211,
1.738,0.969391,
1.7385,0.83252,
1.739,0.531158,
1.7395,0.155792,
1.74,-0.171661,
1.7405,-0.395508,
1.741,-0.508118,
1.7415,-0.502777,
1.742,-0.462494,
1.7425,-0.421753,
1.743,-0.288696,
1.7435,-0.0369263,
1.744,0.244598,
1.7445,0.428314,
1.745,0.544128,
1.7455,0.722961,
1.746,0.917358,
1.7465,1.04935,
1.747,1.14517,
1.7475,1.16089,
1.748,1.01074,
1.7485,0.753479,
1.749,0.479889,
1.7495,0.229492,
1.75,0.0430298,
1.7505,-0.0642395,
1.751,-0.119324,
1.7515,-0.153656,
1.752,-0.193329,
1.7525,-0.2742,
1.753,-0.377655,
1.7535,-0.438385,
1.754,-0.453796,
1.7545,-0.480499,
1.755,-0.542603,
1.7555,-0.613403,
1.756,-0.670624,
1.7565,-0.740967,
1.757,-0.912018,
1.7575,-1.09818,
1.758,-1.11633,
1.7585,-0.976868,
1.759,-0.801086,
1.7595,-0.645752,
1.76,-0.499725,
1.7605,-0.305023,
1.761,-0.0521851,
1.7615,0.19043,
1.762,0.333862,
1.7625,0.415649,
1.763,0.5336,
1.7635,0.651245,
1.764,0.705261,
1.7645,0.73822,
1.765,0.761719,
1.7655,0.725708,
1.766,0.480652,
1.7665,-0.0404358,
1.767,-0.500488,
1.7675,-0.652618,
1.768,-0.619965,
1.7685,-0.536346,
1.769,-0.394135,
1.7695,-0.204773,
1.77,-0.0434875,
1.7705,0.0442505,
1.771,0.106201,
1.7715,0.182495,
1.772,0.218964,
1.7725,0.21759,
1.773,0.242767,
1.7735,0.269775,
1.774,0.234528,
1.7745,0.169067,
1.775,0.149689,
1.7755,0.216522,
1.776,0.337982,
1.7765,0.37323,
1.777,0.309906,
1.7775,0.276794,
1.778,0.315247,
1.7785,0.327911,
1.779,0.260162,
1.7795,0.204163,
1.78,0.211029,
1.7805,0.235291,
1.781,0.190582,
1.7815,-0.00976563,
1.782,-0.294342,
1.7825,-0.498657,
1.783,-0.548096,
1.7835,-0.525513,
1.784,-0.517426,
1.7845,-0.534973,
1.785,-0.579681,
1.7855,-0.65155,
1.786,-0.701141,
1.7865,-0.708313,
1.787,-0.709381,
1.7875,-0.683746,
1.788,-0.558624,
1.7885,-0.334167,
1.789,-0.189209,
1.7895,-0.264435,
1.79,-0.478516,
1.7905,-0.588074,
1.791,-0.466156,
1.7915,-0.209198,
1.792,0.0723267,
1.7925,0.14328,
1.793,-0.107117,
1.7935,-0.207672,
1.794,0.239258,
1.7945,0.883942,
1.795,1.20575,
1.7955,1.18393,
1.796,1.09772,
1.7965,1.13525,
1.797,1.22665,
1.7975,1.1821,
1.798,0.887146,
1.7985,0.475616,
1.799,0.245209,
1.7995,0.207214,
1.8,0.154877,
1.8005,0.10376,
1.801,0.131989,
1.8015,0.135956,
1.802,0.0292969,
1.8025,-0.0871277,
1.803,-0.0950623,
1.8035,-0.00518799,
1.804,0.101166,
1.8045,0.14801,
1.805,0.113373,
1.8055,0.0483704,
1.806,-0.00442505,
1.8065,-0.0335693,
1.807,-0.0447083,
1.8075,-0.0534058,
1.808,-0.136414,
1.8085,-0.352478,
1.809,-0.666504,
1.8095,-0.886078,
1.81,-0.892639,
1.8105,-0.764008,
1.811,-0.634918,
1.8115,-0.558624,
1.812,-0.482941,
1.8125,-0.352173,
1.813,-0.198975,
1.8135,-0.10498,
1.814,-0.117798,
1.8145,-0.138245,
1.815,-0.0177002,
1.8155,0.210724,
1.816,0.38147,
1.8165,0.461884,
1.817,0.545044,
1.8175,0.598907,
1.818,0.476532,
1.8185,0.232239,
1.819,0.0328064,
1.8195,-0.0845337,
1.82,-0.151825,
1.8205,-0.155945,
1.821,-0.0698853,
1.8215,0.0125122,
1.822,-0.0268555,
1.8225,-0.237579,
1.823,-0.441742,
1.8235,-0.489349,
1.824,-0.467987,
1.8245,-0.4422,
1.825,-0.337219,
1.8255,-0.114441,
1.826,0.195007,
1.8265,0.549011,
1.827,0.786896,
1.8275,0.729828,
1.828,0.491028,
1.8285,0.372772,
1.829,0.471344,
1.8295,0.585632,
1.83,0.59967,
1.8305,0.571747,
1.831,0.419617,
1.8315,0.163269,
1.832,-0.0218201,
1.8325,-0.118713,
1.833,-0.258331,
1.8335,-0.469666,
1.834,-0.634308,
1.8345,-0.684052,
1.835,-0.646973,
1.8355,-0.56839,
1.836,-0.468903,
1.8365,-0.348663,
1.837,-0.242004,
1.8375,-0.144043,
1.838,-0.000305176,
1.8385,0.183411,
1.839,0.348663,
1.8395,0.462341,
1.84,0.546417,
1.8405,0.636139,
1.841,0.707092,
1.8415,0.692139,
1.842,0.573578,
1.8425,0.354919,
1.843,0.142822,
1.8435,0.0274658,
1.844,-0.0540161,
1.8445,-0.174408,
1.845,-0.308685,
1.8455,-0.417175,
1.846,-0.500031,
1.8465,-0.699768,
1.847,-1.00128,
1.8475,-1.27594,
1.848,-1.43326,
1.8485,-1.40549,
1.849,-1.28006,
1.8495,-1.15784,
1.85,-0.96344,
1.8505,-0.663605,
1.851,-0.336304,
1.8515,-0.0331116,
1.852,0.262451,
1.8525,0.623016,
1.853,0.98938,
1.8535,1.22482,
1.854,1.25183,
1.8545,1.13205,
1.855,1.129,
1.8555,1.33545,
1.856,1.42426,
1.8565,1.15402,
1.857,0.717468,
1.8575,0.390015,
1.858,0.206604,
1.8585,0.0894165,
1.859,0.0299072,
1.8595,0.018158,
1.86,0.0230408,
1.8605,0.039978,
1.861,0.0868225,
1.8615,0.12146,
1.862,0.0874329,
1.8625,0.00457764,
1.863,-0.085144,
1.8635,-0.147095,
1.864,-0.180664,
1.8645,-0.228424,
1.865,-0.305634,
1.8655,-0.383148,
1.866,-0.41687,
1.8665,-0.423279,
1.867,-0.440826,
1.8675,-0.48111,
1.868,-0.524445,
1.8685,-0.556946,
1.869,-0.584259,
1.8695,-0.60318,
1.87,-0.596161,
1.8705,-0.562439,
1.871,-0.477142,
1.8715,-0.309143,
1.872,-0.114288,
1.8725,0.00183105,
1.873,0.00411987,
1.8735,-0.00762939,
1.874,0.0906372,
1.8745,0.340576,
1.875,0.660553,
1.8755,0.843506,
1.876,0.762634,
1.8765,0.503693,
1.877,0.252533,
1.8775,0.057373,
1.878,-0.127563,
1.8785,-0.307312,
1.879,-0.427094,
1.8795,-0.437469,
1.88,-0.384521,
1.8805,-0.344238,
1.881,-0.310822,
1.8815,-0.251312,
1.882,-0.169678,
1.8825,-0.0701904,
1.883,0.0605774,
1.8835,0.175781,
1.884,0.225983,
1.8845,0.231323,
1.885,0.256042,
1.8855,0.29953,
1.886,0.331421,
1.8865,0.343628,
1.887,0.344696,
1.8875,0.365295,
1.888,0.440216,
1.8885,0.476379,
1.889,0.355682,
1.8895,0.189667,
1.89,0.147858,
1.8905,0.171204,
1.891,0.128479,
1.8915,-0.00411987,
1.892,-0.156555,
1.8925,-0.233307,
1.893,-0.209656,
1.8935,-0.137482,
1.894,-0.0823975,
1.8945,-0.0683594,
1.895,-0.0730896,
1.8955,-0.0639343,
1.896,-0.0546265,
1.8965,-0.0668335,
1.897,-0.0852966,
1.8975,-0.0671387,
1.898,-0.000457764,
1.8985,0.0614929,
1.899,0.0904846,
1.8995,0.119324,
1.9,0.134583,
1.9005,0.085907,
1.901,-0.00854492,
1.9015,-0.0776672,
1.902,-0.0975037,
1.9025,-0.0788879,
1.903,-0.0450134,
1.9035,-0.0245667,
1.904,-0.0187683,
1.9045,-0.00961304,
1.905,-0.0143433,
1.9055,-0.0595093,
1.906,-0.126343,
1.9065,-0.183868,
1.907,-0.209656,
1.9075,-0.321808,
1.908,-0.570374,
1.9085,-0.755615,
1.909,-0.76355,
1.9095,-0.663147,
1.91,-0.52536,
1.9105,-0.40741,
1.911,-0.338135,
1.9115,-0.298157,
1.912,-0.28656,
1.9125,-0.340576,
1.913,-0.377808,
1.9135,-0.276642,
1.914,-0.0062561,
1.9145,0.353394,
1.915,0.682526,
1.9155,0.868378,
1.916,0.817108,
1.9165,0.585022,
1.917,0.379791,
1.9175,0.352631,
1.918,0.432434,
1.9185,0.48645,
1.919,0.491791,
1.9195,0.490417,
1.92,0.45105,
1.9205,0.335083,
1.921,0.158234,
1.9215,-0.0382996,
1.922,-0.253448,
1.9225,-0.471649,
1.923,-0.574188,
1.9235,-0.554047,
1.924,-0.525055,
1.9245,-0.50827,
1.925,-0.497284,
1.9255,-0.449524,
1.926,-0.30899,
1.9265,-0.178986,
1.927,-0.17807,
1.9275,-0.207825,
1.928,-0.164337,
1.9285,-0.0700378,
1.929,0.0460815,
1.9295,0.172119,
1.93,0.26123,
1.9305,0.298767,
1.931,0.332031,
1.9315,0.420532,
1.932,0.516663,
1.9325,0.519409,
1.933,0.407257,
1.9335,0.301514,
1.934,0.346832,
1.9345,0.514069,
1.935,0.606842,
1.9355,0.430756,
1.936,0.113068,
1.9365,-0.0668335,
1.937,-0.0968933,
1.9375,-0.0747681,
1.938,-0.00595093,
1.9385,0.129242,
1.939,0.321503,
1.9395,0.526733,
1.94,0.633087,
1.9405,0.554352,
1.941,0.325165,
1.9415,0.108185,
1.942,-0.00442505,
1.9425,-0.063324,
1.943,-0.107117,
1.9435,-0.124512,
1.944,-0.121613,
1.9445,-0.110931,
1.945,-0.09552,
1.9455,-0.0958252,
1.946,-0.120697,
1.9465,-0.140381,
1.947,-0.149689,
1.9475,-0.191498,
1.948,-0.295105,
1.9485,-0.421753,
1.949,-0.510559,
1.9495,-0.555267,
1.95,-0.573425,
1.9505,-0.583038,
1.951,-0.63446,
1.9515,-0.717468,
1.952,-0.735931,
1.9525,-0.645142,
1.953,-0.458221,
1.9535,-0.242004,
1.954,-0.0846863,
1.9545,-0.0292969,
1.955,0.0119019,
1.9555,0.187378,
1.956,0.535278,
1.9565,0.840912,
1.957,0.830688,
1.9575,0.603333,
1.958,0.421295,
1.9585,0.347137,
1.959,0.303192,
1.9595,0.212097,
1.96,0.0944519,
1.9605,0.0196838,
1.961,-0.01297,
1.9615,0.000152588,
1.962,0.0671387,
1.9625,0.154266,
1.963,0.243835,
1.9635,0.323486,
1.964,0.315399,
1.9645,0.2034,
1.965,0.0630188,
1.9655,-0.0387573,
1.966,-0.0920105,
1.9665,-0.117798,
1.967,-0.130463,
1.9675,-0.135803,
1.968,-0.133362,
1.9685,-0.112457,
1.969,-0.0767517,
1.9695,-0.0486755,
1.97,-0.0398254,
1.9705,-0.0518799,
1.971,-0.0816345,
1.9715,-0.109558,
1.972,-0.120239,
1.9725,-0.118866,
1.973,-0.128021,
1.9735,-0.184631,
1.974,-0.264587,
1.9745,-0.306091,
1.975,-0.298615,
1.9755,-0.270081,
1.976,-0.236816,
1.9765,-0.187836,
1.977,-0.128174,
1.9775,-0.0779724,
1.978,-0.0492859,
1.9785,-0.0315857,
1.979,0.0115967,
1.9795,0.080719,
1.98,0.119476,
1.9805,0.101624,
1.981,0.0640869,
1.9815,0.0193787,
1.982,-0.00595093,
1.9825,0.045166,
1.983,0.142822,
1.9835,0.198669,
1.984,0.167236,
1.9845,0.092926,
1.985,0.0349426,
1.9855,-0.00305176,
1.986,-0.0527954,
1.9865,-0.126801,
1.987,-0.252533,
1.9875,-0.508881,
1.988,-0.816803,
1.9885,-0.969849,
1.989,-0.934296,
1.9895,-0.843811,
1.99,-0.755768,
1.9905,-0.643616,
1.991,-0.478058,
1.9915,-0.285187,
1.992,-0.114441,
1.9925,0.0325012,
1.993,0.183411,
1.9935,0.361328,
1.994,0.554962,
1.9945,0.757599,
1.995,0.993652,
1.9955,1.19507,
1.996,1.2674,
1.9965,1.16882,
1.997,0.902557,
1.9975,0.557251,
1.998,0.291595,
1.9985,0.171967,
1.999,0.136414,
1.9995,0.124054,
2,0.139008,
2.0005,0.161743,
2.001,0.140381,
2.0015,0.0863647,
2.002,0.0442505,
2.0025,0.0204468,
2.003,0.00839233,
2.0035,0.00930786,
2.004,0.0135803,
2.0045,0.00320435,
2.005,-0.0976563,
2.0055,-0.347748,
2.006,-0.603027,
2.0065,-0.717773,
2.007,-0.709229,
2.0075,-0.683136,
2.008,-0.674896,
2.0085,-0.673523,
2.009,-0.380096,
2.0095,-0.0627136,
2.01,0.220184,
2.0105,0.528412,
2.011,0.686035,
2.0115,0.593719,
2.012,0.400696,
2.0125,0.274506,
2.013,0.26001,
2.0135,0.303802,
2.014,0.334167,
2.0145,0.34256,
2.015,0.343781,
2.0155,0.343475,
2.016,0.34317,
2.0165,0.295563,
2.017,0.164032,
2.0175,0.00686646,
2.018,-0.0756836,
2.0185,-0.0840759,
2.019,-0.0575256,
2.0195,-0.0331116,
2.02,0.0149536,
2.0205,0.10788,
2.021,0.183258,
2.0215,0.248108,
2.022,0.384369,
2.0225,0.611877,
2.023,0.778961,
2.0235,0.772247,
2.024,0.715942,
2.0245,0.640411,
2.025,0.408325,
2.0255,0.0865173,
2.026,-0.14267,
2.0265,-0.248108,
2.027,-0.30014,
2.0275,-0.366821,
2.028,-0.437927,
2.0285,-0.45517,
2.029,-0.413361,
2.0295,-0.358734,
2.03,-0.32486,
2.0305,-0.301971,
2.031,-0.286713,
2.0315,-0.284271,
2.032,-0.320435,
2.0325,-0.402069,
2.033,-0.45517,
2.0335,-0.446167,
2.034,-0.401917,
2.0345,-0.327759,
2.035,-0.216522,
2.0355,-0.0958252,
2.036,0.0125122,
2.0365,0.0704956,
2.037,0.065155,
2.0375,0.0184631,
2.038,-0.0170898,
2.0385,0.0311279,
2.039,0.116577,
2.0395,0.0384521,
2.04,-0.360413,
2.0405,-0.836792,
2.041,-1.05057,
2.0415,-1.00906,
2.042,-1.00922,
2.0425,-1.0881,
2.043,-1.03027,
2.0435,-0.787201,
2.044,-0.471954,
2.0445,-0.180969,
2.045,0.098877,
2.0455,0.438843,
2.046,0.857697,
2.0465,1.26328,
2.047,1.58813,
2.0475,1.84769,
2.048,1.98776,
2.0485,1.9249,
2.049,1.67038,
2.0495,1.39496,
2.05,1.19781,
2.0505,0.971832,
2.051,0.697937,
2.0515,0.376892,
2.052,0.0334167,
2.0525,-0.223846,
2.053,-0.353241,
2.0535,-0.392761,
2.054,-0.378571,
2.0545,-0.332947,
2.055,-0.289307,
2.0555,-0.260315,
2.056,-0.239105,
2.0565,-0.22049,
2.057,-0.204315,
2.0575,-0.199585,
2.058,-0.202789,
2.0585,-0.20874,
2.059,-0.211487,
2.0595,-0.202179,
2.06,-0.18158,
2.0605,-0.167236,
2.061,-0.16983,
2.0615,-0.190735,
2.062,-0.214386,
2.0625,-0.217285,
2.063,-0.201569,
2.0635,-0.189209,
2.064,-0.187378,
2.0645,-0.185089,
2.065,-0.176849,
2.0655,-0.169983,
2.066,-0.169983,
2.0665,-0.173645,
2.067,-0.184174,
2.0675,-0.196533,
2.068,-0.204468,
2.0685,-0.211639,
2.069,-0.227356,
2.0695,-0.249786,
2.07,-0.262604,
2.0705,-0.265808,
2.071,-0.258331,
2.0715,-0.237274,
2.072,-0.209198,
2.0725,-0.18631,
2.073,-0.175323,
2.0735,-0.149384,
2.074,-0.0639343,
2.0745,0.0761414,
2.075,0.174408,
2.0755,0.171204,
2.076,0.0909424,
2.0765,0.0134277,
2.077,0.015564,
2.0775,0.0634766,
2.078,0.0495911,
2.0785,-0.0611877,
2.079,-0.180664,
2.0795,-0.223846,
2.08,-0.221405,
2.0805,-0.22583,
2.081,-0.212708,
2.0815,-0.141907,
2.082,-0.0132751,
2.0825,0.10788,
2.083,0.132751,
2.0835,0.0904846,
2.084,0.0492859,
2.0845,0.00595093,
2.085,-0.0128174,
2.0855,0.0369263,
2.086,0.11795,
2.0865,0.132751,
2.087,0.0498962,
2.0875,-0.0524902,
2.088,-0.108643,
2.0885,-0.141907,
2.089,-0.168457,
2.0895,-0.182343,
2.09,-0.171356,
2.0905,-0.123596,
2.091,-0.0701904,
2.0915,-0.0495911,
2.092,-0.124207,
2.0925,-0.223999,
2.093,-0.256653,
2.0935,-0.328369,
2.094,-0.460968,
2.0945,-0.536499,
2.095,-0.476685,
2.0955,-0.317688,
2.096,-0.128784,
2.0965,0.0254822,
2.097,0.146637,
2.0975,0.294647,
2.098,0.518799,
2.0985,0.790558,
2.099,1.02737,
2.0995,1.14166,
2.1,1.13312,
2.1005,1.03622,
2.101,0.814819,
2.1015,0.52597,
2.102,0.31601,
2.1025,0.194702,
2.103,0.112457,
2.1035,0.0741577,
2.104,0.0538635,
2.1045,0,
2.105,-0.0689697,
2.1055,-0.124969,
2.106,-0.204468,
2.1065,-0.340881,
2.107,-0.50415,
2.1075,-0.667725,
2.108,-0.764923,
2.1085,-0.772705,
2.109,-0.779724,
2.1095,-0.793304,
2.11,-0.736542,
2.1105,-0.651703,
2.111,-0.569916,
2.1115,-0.432892,
2.112,-0.203705,
2.1125,0.109863,
2.113,0.497437,
2.1135,0.893097,
2.114,1.20743,
2.1145,1.43234,
2.115,1.60767,
2.1155,1.64307,
2.116,1.51932,
2.1165,1.35696,
2.117,1.16287,
2.1175,0.860596,
2.118,0.45578,
2.1185,0.0613403,
2.119,-0.19577,
2.1195,-0.2948,
2.12,-0.315857,
2.1205,-0.316467,
2.121,-0.301971,
2.1215,-0.285187,
2.122,-0.283661,
2.1225,-0.305939,
2.123,-0.334778,
2.1235,-0.396423,
2.124,-0.550537,
2.1245,-0.723267,
2.125,-0.914917,
2.1255,-1.13525,
2.126,-1.26343,
2.1265,-1.24435,
2.127,-1.13251,
2.1275,-0.986481,
2.128,-0.867615,
2.1285,-0.801392,
2.129,-0.739136,
2.1295,-0.699921,
2.13,-0.686951,
2.1305,-0.662689,
2.131,-0.652618,
2.1315,-0.658112,
2.132,-0.614014,
2.1325,-0.447388,
2.133,-0.137482,
2.1335,0.157166,
2.134,0.208435,
2.1345,-0.16098,
2.135,-0.675507,
2.1355,-0.769501,
2.136,-0.318909,
2.1365,0.344696,
2.137,0.936127,
2.1375,1.03729,
2.138,0.487518,
2.1385,-0.0663757,
2.139,-0.162201,
2.1395,-0.0300598,
2.14,-0.00518799,
2.1405,0.0482178,
2.141,0.373077,
2.1415,0.952606,
2.142,1.4328,
2.1425,1.67664,
2.143,1.83777,
2.1435,1.80923,
2.144,1.54205,
2.1445,1.27197,
2.145,1.14944,
2.1455,1.07117,
2.146,0.98175,
2.1465,0.899506,
2.147,0.833282,
2.1475,0.823517,
2.148,0.88623,
2.1485,0.867615,
2.149,0.646362,
2.1495,0.415802,
2.15,0.233459,
2.1505,-0.0195313,
2.151,-0.256958,
2.1515,-0.370026,
2.152,-0.417175,
2.1525,-0.423126,
2.153,-0.348663,
2.1535,-0.39093,
2.154,-0.652466,
2.1545,-0.91568,
2.155,-1.1586,
2.1555,-1.50024,
2.156,-1.89331,
2.1565,-2.42767,
2.157,-2.87415,
2.1575,-2.87354,
2.158,-2.56012,
2.1585,-2.1817,
2.159,-1.74988,
2.1595,-1.17325,
2.16,-0.415039,
2.1605,0.408478,
2.161,1.11984,
2.1615,1.68564,
2.162,2.15378,
2.1625,2.3349,
2.163,2.1553,
2.1635,1.89941,
2.164,1.73721,
2.1645,1.53,
2.165,1.18622,
2.1655,0.886536,
2.166,0.765991,
2.1665,0.668793,
2.167,0.218201,
2.1675,-0.343323,
2.168,-0.568237,
2.1685,-0.518341,
2.169,-0.415649,
2.1695,-0.419006,
2.17,-0.519104,
2.1705,-0.511475,
2.171,-0.404205,
2.1715,-0.378418,
2.172,-0.384216,
2.1725,-0.245819,
2.173,0.0558472,
2.1735,0.37674,
2.174,0.472412,
2.1745,0.359955,
2.175,0.328522,
2.1755,0.462646,
2.176,0.670013,
2.1765,0.953369,
2.177,1.24039,
2.1775,1.34949,
2.178,1.32614,
2.1785,1.33636,
2.179,1.37466,
2.1795,1.27609,
2.18,0.863495,
2.1805,0.0448608,
2.181,-0.938568,
2.1815,-1.65604,
2.182,-1.96945,
2.1825,-2.00821,
2.183,-1.88934,
2.1835,-1.73477,
2.184,-1.62247,
2.1845,-1.52466,
2.185,-1.62369,
2.1855,-2.04346,
2.186,-2.43958,
2.1865,-2.36893,
2.187,-1.79123,
2.1875,-1.11725,
2.188,-0.485535,
2.1885,0.337982,
2.189,1.28342,
2.1895,1.84143,
2.19,1.79062,
2.1905,1.2088,
2.191,0.488281,
2.1915,0.141602,
2.192,0.401306,
2.1925,0.826721,
2.193,0.847931,
2.1935,0.668945,
2.194,0.637207,
2.1945,0.699005,
2.195,0.530548,
2.1955,0.055542,
2.196,-0.356293,
2.1965,-0.42572,
2.197,-0.297241,
2.1975,-0.167084,
2.198,0.0979614,
2.1985,0.390625,
2.199,0.410461,
2.1995,0.320587,
2.2,0.494537,
2.2005,1.12442,
2.201,1.9072,
2.2015,2.21268,
2.202,1.71631,
2.2025,0.971832,
2.203,0.718842,
2.2035,0.927887,
2.204,1.08276,
2.2045,1.05118,
2.205,0.984955,
2.2055,0.924988,
2.206,0.766754,
2.2065,0.495453,
2.207,0.248413,
2.2075,0.045929,
2.208,-0.178833,
2.2085,-0.379333,
2.209,-0.477142,
2.2095,-0.481415,
2.21,-0.494843,
2.2105,-0.595398,
2.211,-0.658112,
2.2115,-0.667267,
2.212,-0.666809,
2.2125,-0.666351,
2.213,-0.665894,
2.2135,-0.665894,
2.214,-0.39505,
2.2145,-0.229645,
2.215,-0.367432,
2.2155,-0.597992,
2.216,-0.754852,
2.2165,-0.847931,
2.217,-0.931244,
2.2175,-1.14227,
2.218,-1.45859,
2.2185,-1.82098,
2.219,-2.02209,
2.2195,-2.07184,
2.22,-2.07794,
2.2205,-2.07703,
2.221,-2.33475,
2.2215,-3.00339,
2.222,-3.73444,
2.2225,-4.0181,
2.223,-3.76801,
2.2235,-3.22205,
2.224,-2.47223,
2.2245,-1.55319,
2.225,-0.569916,
2.2255,0.404053,
2.226,1.22498,
2.2265,1.61041,
2.227,1.78391,
2.2275,2.03262,
2.228,2.29294,
2.2285,2.51022,
2.229,2.78183,
2.2295,2.92892,
2.23,2.66205,
2.2305,2.05276,
2.231,1.46301,
2.2315,1.09009,
2.232,0.794678,
2.2325,0.538483,
2.233,0.485687,
2.2335,0.605011,
2.234,0.681305,
2.2345,0.71228,
2.235,0.66864,
2.2355,0.49881,
2.236,0.302887,
2.2365,0.25177,
2.237,0.233307,
2.2375,0.0527954,
2.238,-0.180817,
2.2385,-0.337677,
2.239,-0.33432,
2.2395,-0.143585,
2.24,0.0778198,
2.2405,0.202026,
2.241,0.268555,
2.2415,0.418549,
2.242,0.611115,
2.2425,0.646667,
2.243,0.444183,
2.2435,0.0946045,
2.244,-0.270996,
2.2445,-0.546112,
2.245,-0.602112,
2.2455,-0.44281,
2.246,-0.387421,
2.2465,-0.587311,
2.247,-0.830078,
2.2475,-0.961914,
2.248,-1.01593,
2.2485,-1.01593,
2.249,-0.92865,
2.2495,-0.664978,
2.25,-0.365753,
2.2505,-0.278473,
2.251,-0.42038,
2.2515,-0.497894,
2.252,-0.316772,
2.2525,-0.0491333,
2.253,0.0689697,
2.2535,0.180359,
2.254,0.563354,
2.2545,1.01959,
2.255,1.07574,
2.2555,0.696564,
2.256,0.176392,
2.2565,-0.253143,
2.257,-0.484161,
2.2575,-0.652924,
2.258,-0.838318,
2.2585,-0.879364,
2.259,-0.798187,
2.2595,-0.776978,
2.26,-0.757751,
2.2605,-0.585022,
2.261,-0.325012,
2.2615,-0.100861,
2.262,0.219574,
2.2625,0.795593,
2.263,1.2973,
2.2635,1.22742,
2.264,0.906677,
2.2645,0.937653,
2.265,1.10016,
2.2655,0.931396,
2.266,0.624237,
2.2665,0.49942,
2.267,0.467529,
2.2675,0.10437,
2.268,-0.54657,
2.2685,-1.08154,
2.269,-1.34018,
2.2695,-1.47705,
2.27,-1.56799,
2.2705,-1.58386,
2.271,-1.55243,
2.2715,-1.41068,
2.272,-1.21658,
2.2725,-1.05682,
2.273,-0.742188,
2.2735,-0.114746,
2.274,0.476837,
2.2745,0.768738,
2.275,0.905609,
2.2755,1.00037,
2.276,1.0994,
2.2765,1.23032,
2.277,1.44897,
2.2775,1.61865,
2.278,1.50665,
2.2785,1.18408,
2.279,0.766296,
2.2795,0.301819,
2.28,-0.173035,
2.2805,-0.571136,
2.281,-0.8461,
2.2815,-0.939941,
2.282,-0.880585,
2.2825,-0.885468,
2.283,-0.993805,
2.2835,-0.981903,
2.284,-0.778198,
2.2845,-0.512238,
2.285,-0.195618,
2.2855,0.305939,
2.286,0.979309,
2.2865,1.59027,
2.287,1.87439,
2.2875,1.84402,
2.288,1.67007,
2.2885,1.41953,
2.289,1.04828,
2.2895,0.699005,
2.29,0.523987,
2.2905,0.41214,
2.291,0.297546,
2.2915,0.216064,
2.292,0.101013,
2.2925,-0.0631714,
2.293,-0.184631,
2.2935,-0.282898,
2.294,-0.444336,
2.2945,-0.614166,
2.295,-0.745087,
2.2955,-0.910034,
2.296,-1.06003,
2.2965,-1.09482,
2.297,-1.03271,
2.2975,-1.03012,
2.298,-1.10672,
2.2985,-1.17508,
2.299,-1.16241,
2.2995,-1.03455,
2.3,-0.76767,
2.3005,-0.380707,
2.301,-0.0411987,
2.3015,0.222778,
2.302,0.370636,
2.3025,0.328064,
2.303,0.211182,
2.3035,0.238647,
2.304,0.519562,
2.3045,0.886993,
2.305,1.10214,
2.3055,1.12152,
2.306,1.01044,
2.3065,0.799713,
2.307,0.522461,
2.3075,0.243378,
2.308,0.010376,
2.3085,-0.143127,
2.309,-0.26062,
2.3095,-0.479431,
2.31,-0.861359,
2.3105,-1.28616,
2.311,-1.62064,
2.3115,-1.85623,
2.312,-1.93848,
2.3125,-1.80389,
2.313,-1.47934,
2.3135,-1.03027,
2.314,-0.521393,
2.3145,-0.0901794,
2.315,0.148163,
2.3155,0.153656,
2.316,0.14389,
2.3165,0.393219,
2.317,0.871124,
2.3175,1.18668,
2.318,1.06354,
2.3185,0.509644,
2.319,-0.144501,
2.3195,-0.42038,
2.32,-0.230865,
2.3205,0.159607,
2.321,0.765381,
2.3215,1.56082,
2.322,2.33734,
2.3225,2.77969,
2.323,2.44904,
2.3235,1.60828,
2.324,0.888519,
2.3245,0.48172,
2.325,0.267029,
2.3255,0.103607,
2.326,-0.0180054,
2.3265,-0.0331116,
2.327,0.06073,
2.3275,0.178375,
2.328,0.313873,
2.3285,0.513763,
2.329,0.685883,
2.3295,0.611115,
2.33,0.312958,
2.3305,0.0466919,
2.331,-0.190277,
2.3315,-0.44281,
2.332,-0.589905,
2.3325,-0.645752,
2.333,-0.812988,
2.3335,-1.10794,
2.334,-1.48651,
2.3345,-1.8959,
2.335,-2.1199,
2.3355,-2.01294,
2.336,-1.71051,
2.3365,-1.60751,
2.337,-1.83502,
2.3375,-2.05902,
2.338,-2.09198,
2.3385,-1.87042,
2.339,-1.28052,
2.3395,-0.536499,
2.34,-0.000762939,
2.3405,0.490265,
2.341,0.950317,
2.3415,1.10306,
2.342,1.14349,
2.3425,1.54083,
2.343,2.34329,
2.3435,3.04657,
2.344,3.19046,
2.3445,3.06442,
2.345,2.94571,
2.3455,2.67639,
2.346,2.20169,
2.3465,1.58051,
2.347,0.951385,
2.3475,0.494232,
2.348,0.229492,
2.3485,0.0746155,
2.349,-0.0370789,
2.3495,-0.121613,
2.35,-0.184326,
2.3505,-0.23819,
2.351,-0.289459,
2.3515,-0.335236,
2.352,-0.368805,
2.3525,-0.39978,
2.353,-0.432129,
2.3535,-0.458069,
2.354,-0.479279,
2.3545,-0.497589,
2.355,-0.499268,
2.3555,-0.465393,
2.356,-0.427856,
2.3565,-0.436401,
2.357,-0.484314,
2.3575,-0.531311,
2.358,-0.565033,
2.3585,-0.587311,
2.359,-0.609741,
2.3595,-0.633545,
2.36,-0.69809,
2.3605,-0.861206,
2.361,-1.2674,
2.3615,-1.90857,
2.362,-2.43317,
2.3625,-2.62985,
2.363,-2.60239,
2.3635,-2.40158,
2.364,-2.03445,
2.3645,-1.49033,
2.365,-0.746307,
2.3655,0.131073,
2.366,0.953827,
2.3665,1.56723,
2.367,2.07779,
2.3675,2.57904,
2.368,3.07297,
2.3685,3.34839,
2.369,2.97714,
2.3695,2.07245,
2.37,1.12335,
2.3705,0.331726,
2.371,-0.332184,
2.3715,-0.847015,
2.372,-1.19781,
2.3725,-1.38229,
2.373,-1.42273,
2.3735,-1.3298,
2.374,-1.08948,
2.3745,-0.728455,
2.375,-0.382843,
2.3755,-0.0170898,
2.376,0.400543,
2.3765,0.68573,
2.377,0.832367,
2.3775,0.985413,
2.378,1.21216,
2.3785,1.52618,
2.379,1.67221,
2.3795,1.42975,
2.38,0.879669,
2.3805,0.354309,
2.381,0.10025,
2.3815,0.0402832,
2.382,0.00778198,
2.3825,-0.0473022,
2.383,-0.0952148,
2.3835,-0.121918,
2.384,-0.137787,
2.3845,-0.151367,
2.385,-0.167542,
2.3855,-0.186005,
2.386,-0.2034,
2.3865,-0.217133,
2.387,-0.233154,
2.3875,-0.2565,
2.388,-0.297241,
2.3885,-0.363464,
2.389,-0.432587,
2.3895,-0.458527,
2.39,-0.471649,
2.3905,-0.522156,
2.391,-0.595551,
2.3915,-0.688782,
2.392,-0.788422,
2.3925,-0.838165,
2.393,-0.809784,
2.3935,-0.72876,
2.394,-0.638885,
2.3945,-0.512695,
2.395,-0.308075,
2.3955,-0.0535583,
2.396,0.116577,
2.3965,0.126495,
2.397,0.0680542,
2.3975,0.0424194,
2.398,0.052948,
2.3985,0.0888062,
2.399,0.125275,
2.3995,0.15564,
2.4,0.211334,
2.4005,0.161133,
2.401,-0.085144,
2.4015,-0.364227,
2.402,-0.515289,
2.4025,-0.50293,
2.403,-0.407562,
2.4035,-0.333099,
2.404,-0.179749,
2.4045,0.0636292,
2.405,0.241852,
2.4055,0.411682,
2.406,0.674438,
2.4065,0.853729,
2.407,0.861206,
2.4075,0.899506,
2.408,1.05515,
2.4085,1.07651,
2.409,0.810699,
2.4095,0.462189,
2.41,0.257721,
2.4105,0.154877,
2.411,0.0402832,
2.4115,-0.0852966,
2.412,-0.163269,
2.4125,-0.167236,
2.413,-0.116882,
2.4135,-0.0457764,
2.414,-0.00198364,
2.4145,-0.0149536,
2.415,-0.0686646,
2.4155,-0.114746,
2.416,-0.133667,
2.4165,-0.137787,
2.417,-0.138397,
2.4175,-0.138092,
2.418,-0.137787,
2.4185,-0.869141,
2.419,-1.33896,
2.4195,-1.16562,
2.42,-0.780334,
2.4205,-0.353699,
2.421,0.14679,
2.4215,0.753326,
2.422,1.15479,
2.4225,1.24939,
2.423,1.36154,
2.4235,1.45691,
2.424,1.48392,
2.4245,1.48758,
2.425,1.48758,
2.4255,1.48743,
2.426,1.6098,
2.4265,1.7424,
2.427,1.66092,
2.4275,1.44836,
2.428,1.21887,
2.4285,0.888977,
2.429,0.454559,
2.4295,0.100555,
2.43,-0.109711,
2.4305,-0.306396,
2.431,-0.656281,
2.4315,-1.14594,
2.432,-1.56128,
2.4325,-1.74637,
2.433,-1.73264,
2.4335,-1.70242,
2.434,-1.7308,
2.4345,-1.65039,
2.435,-1.27197,
2.4355,-0.485077,
2.436,0.386505,
2.4365,1.12244,
2.437,1.7897,
2.4375,2.30255,
2.438,2.49985,
2.4385,2.33414,
2.439,2.04269,
2.4395,1.94672,
2.44,1.92505,
2.4405,1.71692,
2.441,1.38397,
2.4415,1.03149,
2.442,0.69931,
2.4425,0.436249,
2.443,0.275269,
2.4435,0.115967,
2.444,-0.190735,
2.4445,-0.552979,
2.445,-0.68985,
2.4455,-0.528107,
2.446,-0.218658,
2.4465,0.00686646,
2.447,0.00366211,
2.4475,-0.106506,
2.448,-0.174713,
2.4485,-0.238953,
2.449,-0.389557,
2.4495,-0.518951,
2.45,-0.49881,
2.4505,-0.383148,
2.451,-0.280457,
2.4515,-0.254364,
2.452,-0.309906,
2.4525,-0.383148,
2.453,-0.402374,
2.4535,-0.346069,
2.454,-0.225067,
2.4545,-0.0297546,
2.455,0.178528,
2.4555,0.226288,
2.456,0.0787354,
2.4565,-0.123749,
2.457,-0.37323,
2.4575,-0.706024,
2.458,-1.06323,
2.4585,-1.40488,
2.459,-1.71112,
2.4595,-1.9841,
2.46,-2.15317,
2.4605,-2.05353,
2.461,-1.68823,
2.4615,-1.13327,
2.462,-0.502777,
2.4625,0.0839233,
2.463,0.581818,
2.4635,1.11984,
2.464,1.89651,
2.4645,2.69165,
2.465,3.03726,
2.4655,2.83997,
2.466,2.31964,
2.4665,1.59149,
2.467,0.866241,
2.4675,0.395966,
2.468,0.0411987,
2.4685,-0.260162,
2.469,-0.387573,
2.4695,-0.383453,
2.47,-0.363464,
2.4705,-0.354156,
2.471,-0.331268,
2.4715,-0.289459,
2.472,-0.245361,
2.4725,-0.210114,
2.473,-0.201111,
2.4735,-0.227356,
2.474,-0.25177,
2.4745,-0.256195,
2.475,-0.254211,
2.4755,-0.252075,
2.476,-0.249634,
2.4765,-0.239868,
2.477,-0.229492,
2.4775,-0.227814,
2.478,-0.22995,
2.4785,-0.224609,
2.479,-0.215149,
2.4795,-0.205383,
2.48,-0.195313,
2.4805,-0.187225,
2.481,-0.179443,
2.4815,-0.173187,
2.482,-0.166779,
2.4825,-0.157471,
2.483,-0.145721,
2.4835,-0.13504,
2.484,-0.123596,
2.4845,-0.120239,
2.485,-0.135345,
2.4855,-0.170288,
2.486,-0.218811,
2.4865,-0.26825,
2.487,-0.308075,
2.4875,-0.344849,
2.488,-0.398407,
2.4885,-0.474396,
2.489,-0.566711,
2.4895,-0.61676,
2.49,-0.615692,
2.4905,-0.652161,
2.491,-0.71701,
2.4915,-0.705566,
2.492,-0.595551,
2.4925,-0.37735,
2.493,-0.0128174,
2.4935,0.302124,
2.494,0.256653,
2.4945,0.0119019,
2.495,-0.015564,
2.4955,0.237122,
2.496,0.579224,
2.4965,0.823364,
2.497,0.895538,
2.4975,0.788727,
2.498,0.604248,
2.4985,0.507965,
2.499,0.519409,
2.4995,0.523682,
2.5,0.501404,
2.5005,0.468597,
2.501,0.415955,
2.5015,0.387268,
2.502,0.393982,
2.5025,0.42099,
2.503,0.426941,
2.5035,0.373688,
2.504,0.285645,
2.5045,0.209656,
2.505,0.148926,
2.5055,0.0669861,
2.506,-0.0300598,
2.5065,-0.115662,
2.507,-0.197601,
2.5075,-0.323334,
2.508,-0.45639,
2.5085,-0.515442,
2.509,-0.474243,
2.5095,-0.368805,
2.51,-0.259399,
2.5105,-0.191345,
2.511,-0.130005,
2.5115,-0.0177002,
2.512,0.195313,
2.5125,0.462494,
2.513,0.598907,
2.5135,0.486755,
2.514,0.189056,
2.5145,-0.154572,
2.515,-0.433655,
2.5155,-0.606079,
2.516,-0.737457,
2.5165,-0.894012,
2.517,-1.05927,
2.5175,-1.15433,
2.518,-1.13953,
2.5185,-1.00266,
2.519,-0.821838,
2.5195,-0.597382,
2.52,-0.204926,
2.5205,0.328369,
2.521,0.782776,
2.5215,0.954437,
2.522,1.00342,
2.5225,1.19186,
2.523,1.39252,
2.5235,1.19339,
2.524,0.64209,
2.5245,0.267487,
2.525,0.267487,
2.5255,0.36377,
2.526,0.30777,
2.5265,0.142975,
2.527,0.0634766,
2.5275,0.12085,
2.528,0.176544,
2.5285,0.157776,
2.529,0.181732,
2.5295,0.296173,
2.53,0.378876,
2.5305,0.369263,
2.531,0.303345,
2.5315,0.129852,
2.532,-0.109558,
2.5325,-0.229187,
2.533,-0.212708,
2.5335,-0.180359,
2.534,-0.137939,
2.5345,-0.0469971,
2.535,0.039978,
2.5355,0.0434875,
2.536,-0.00701904,
2.5365,-0.0276184,
2.537,-0.0161743,
2.5375,-0.0247192,
2.538,-0.0564575,
2.5385,-0.071106,
2.539,-0.169525,
2.5395,-0.519562,
2.54,-0.991058,
2.5405,-1.31012,
2.541,-1.38504,
2.5415,-1.19949,
2.542,-0.843048,
2.5425,-0.49408,
2.543,-0.169983,
2.5435,0.284119,
2.544,0.848999,
2.5445,1.30615,
2.545,1.47034,
2.5455,1.31119,
2.546,0.975342,
2.5465,0.64621,
2.547,0.524292,
2.5475,0.59906,
2.548,0.604706,
2.5485,0.396423,
2.549,0.135498,
2.5495,0.0387573,
2.55,0.0982666,
2.5505,0.139465,
2.551,0.0263977,
2.5515,-0.16037,
2.552,-0.270386,
2.5525,-0.289459,
2.553,-0.28244,
2.5535,-0.299072,
2.554,-0.387573,
2.5545,-0.509644,
2.555,-0.588989,
2.5555,-0.637665,
2.556,-0.697174,
2.5565,-0.753326,
2.557,-0.768127,
2.5575,-0.73288,
2.558,-0.632172,
2.5585,-0.514221,
2.559,-0.447235,
2.5595,-0.374756,
2.56,-0.119019,
2.5605,0.38269,
2.561,0.87265,
2.5615,1.15494,
2.562,1.16791,
2.5625,0.899048,
2.563,0.539551,
2.5635,0.367279,
2.564,0.336914,
2.5645,0.22171,
2.565,0.0408936,
2.5655,-0.0669861,
2.566,-0.0933838,
2.5665,-0.0979614,
2.567,-0.109711,
2.5675,-0.128784,
2.568,-0.150909,
2.5685,-0.191498,
2.569,-0.249481,
2.5695,-0.303497,
2.57,-0.355988,
2.5705,-0.407562,
2.571,-0.441284,
2.5715,-0.44754,
2.572,-0.437927,
2.5725,-0.435333,
2.573,-0.452728,
2.5735,-0.463562,
2.574,-0.415802,
2.5745,-0.289459,
2.575,-0.180817,
2.5755,-0.173035,
2.576,-0.19516,
2.5765,-0.132751,
2.577,0.0209045,
2.5775,0.146637,
2.578,0.22171,
2.5785,0.333252,
2.579,0.403748,
2.5795,0.359497,
2.58,0.234375,
2.5805,0.0724792,
2.581,-0.0559998,
2.5815,-0.101471,
2.582,-0.0804138,
2.5825,-0.0517273,
2.583,-0.10376,
2.5835,-0.216522,
2.584,-0.277252,
2.5845,-0.223236,
2.585,-0.0260925,
2.5855,0.256958,
2.586,0.393829,
2.5865,0.269318,
2.587,0.104065,
2.5875,0.155945,
2.588,0.446777,
2.5885,0.817871,
2.589,1.04263,
2.5895,0.937958,
2.59,0.649109,
2.5905,0.423584,
2.591,0.288544,
2.5915,0.178223,
2.592,0.102386,
2.5925,0.0631714,
2.593,0.0379944,
2.5935,0.0444031,
2.594,0.0794983,
2.5945,0.0813293,
2.595,0.0431824,
2.5955,0.0109863,
2.596,-0.00534058,
2.5965,-0.0291443,
2.597,-0.0727844,
2.5975,-0.135345,
2.598,-0.196991,
2.5985,-0.270081,
2.599,-0.350342,
2.5995,-0.368805,
2.6,-0.316925,
2.6005,-0.278625,
2.601,-0.321503,
2.6015,-0.434875,
2.602,-0.562592,
2.6025,-0.718384,
2.603,-0.876465,
2.6035,-0.950623,
2.604,-0.908813,
2.6045,-0.746918,
2.605,-0.427246,
2.6055,-0.0740051,
2.606,0.158997,
2.6065,0.32135,
2.607,0.48996,
2.6075,0.595703,
2.608,0.727844,
2.6085,0.870667,
2.609,0.8638,
2.6095,0.664978,
2.61,0.43808,
2.6105,0.350952,
2.611,0.407562,
2.6115,0.506897,
2.612,0.541534,
2.6125,0.491943,
2.613,0.451355,
2.6135,0.408325,
2.614,0.272522,
2.6145,0.0653076,
2.615,-0.0819397,
2.6155,-0.124054,
2.616,-0.127869,
2.6165,-0.142975,
2.617,-0.172119,
2.6175,-0.197144,
2.618,-0.211945,
2.6185,-0.213776,
2.619,-0.206146,
2.6195,-0.193634,
2.62,-0.188446,
2.6205,-0.197601,
2.621,-0.205994,
2.6215,-0.20874,
2.622,-0.218353,
2.6225,-0.223236,
2.623,-0.228577,
2.6235,-0.257416,
2.624,-0.324097,
2.6245,-0.41626,
2.625,-0.483398,
2.6255,-0.525208,
2.626,-0.660095,
2.6265,-0.931702,
2.627,-1.20239,
2.6275,-1.36703,
2.628,-1.45813,
2.6285,-1.46896,
2.629,-1.35757,
2.6295,-1.10504,
2.63,-0.694733,
2.6305,-0.167847,
2.631,0.353088,
2.6315,0.8255,
2.632,1.2973,
2.6325,1.72394,
2.633,1.99341,
2.6335,2.0076,
2.634,1.74377,
2.6345,1.34796,
2.635,0.959625,
2.6355,0.643768,
2.636,0.433807,
2.6365,0.308228,
2.637,0.216675,
2.6375,0.176239,
2.638,0.224304,
2.6385,0.304871,
2.639,0.30777,
2.6395,0.249786,
2.64,0.223083,
2.6405,0.183563,
2.641,0.0756836,
2.6415,-0.0395203,
2.642,-0.0901794,
2.6425,-0.0793457,
2.643,-0.0619507,
2.6435,-0.0637817,
2.644,-0.0813293,
2.6445,-0.1091,
2.645,-0.131683,
2.6455,-0.136719,
2.646,-0.137634,
2.6465,-0.137939,
2.647,-0.144653,
2.6475,-0.161133,
2.648,-0.192413,
2.6485,-0.250854,
2.649,-0.347748,
2.6495,-0.474548,
2.65,-0.57312,
2.6505,-0.628357,
2.651,-0.67627,
2.6515,-0.718994,
2.652,-0.724182,
2.6525,-0.677948,
2.653,-0.601654,
2.6535,-0.49881,
2.654,-0.356903,
2.6545,-0.117493,
2.655,0.286255,
2.6555,0.757599,
2.656,1.13235,
2.6565,1.1647,
2.657,0.841064,
2.6575,0.440369,
2.658,0.11261,
2.6585,-0.148315,
2.659,-0.318756,
2.6595,-0.368042,
2.66,-0.337982,
2.6605,-0.287476,
2.661,-0.197144,
2.6615,-0.0283813,
2.662,0.103302,
2.6625,0.0712585,
2.663,-0.0213623,
2.6635,-0.0473022,
2.664,-0.0131226,
2.6645,0.0280762,
2.665,0.0376892,
2.6655,-0.0180054,
2.666,-0.116425,
2.6665,-0.182648,
2.667,-0.20462,
2.6675,-0.242767,
2.668,-0.288086,
2.6685,-0.305939,
2.669,-0.284424,
2.6695,-0.234833,
2.67,-0.170288,
2.6705,-0.116577,
2.671,-0.11734,
2.6715,-0.144653,
2.672,-0.140533,
2.6725,-0.0579834,
2.673,0.128174,
2.6735,0.345917,
2.674,0.383911,
2.6745,0.25116,
2.675,0.158081,
2.6755,0.178375,
2.676,0.232697,
2.6765,0.257416,
2.677,0.229492,
2.6775,0.214691,
2.678,0.270386,
2.6785,0.323639,
2.679,0.293427,
2.6795,0.170898,
2.68,-0.00518799,
2.6805,-0.175781,
2.681,-0.321808,
2.6815,-0.45166,
2.682,-0.540009,
2.6825,-0.570068,
2.683,-0.544739,
2.6835,-0.457001,
2.684,-0.316467,
2.6845,-0.189209,
2.685,-0.157471,
2.6855,-0.155182,
2.686,-0.101013,
2.6865,-0.00564575,
2.687,0.141907,
2.6875,0.309448,
2.688,0.370178,
2.6885,0.317078,
2.689,0.277863,
2.6895,0.333252,
2.69,0.430145,
2.6905,0.435486,
2.691,0.296936,
2.6915,0.0904846,
2.692,-0.0357056,
2.6925,-0.0640869,
2.693,-0.101776,
2.6935,-0.195313,
2.694,-0.273132,
2.6945,-0.258026,
2.695,-0.14679,
2.6955,-0.0102234,
2.696,0.0869751,
2.6965,0.179596,
2.697,0.424652,
2.6975,0.76416,
2.698,0.873413,
2.6985,0.613251,
2.699,0.223083,
2.6995,-0.075531,
2.7,-0.250092,
2.7005,-0.337067,
2.701,-0.386047,
2.7015,-0.437775,
2.702,-0.488129,
2.7025,-0.485992,
2.703,-0.427399,
2.7035,-0.343475,
2.704,-0.241394,
2.7045,-0.09552,
2.705,0.131073,
2.7055,0.31662,
2.706,0.351563,
2.7065,0.365448,
2.707,0.462341,
2.7075,0.463409,
2.708,0.280914,
2.7085,0.118256,
2.709,0.141754,
2.7095,0.261383,
2.71,0.330353,
2.7105,0.292969,
2.711,0.191803,
2.7115,0.0895691,
2.712,0.0137329,
2.7125,-0.0378418,
2.713,-0.107422,
2.7135,-0.180206,
2.714,-0.236053,
2.7145,-0.340729,
2.715,-0.481262,
2.7155,-0.582123,
2.716,-0.628357,
2.7165,-0.569458,
2.717,-0.357971,
2.7175,-0.022583,
2.718,0.298157,
2.7185,0.530853,
2.719,0.66803,
2.7195,0.658722,
2.72,0.523376,
2.7205,0.380096,
2.721,0.267181,
2.7215,0.224915,
2.722,0.279236,
2.7225,0.338287,
2.723,0.290527,
2.7235,0.154572,
2.724,0.0312805,
2.7245,-0.035553,
2.725,-0.065155,
2.7255,-0.0915527,
2.726,-0.128021,
2.7265,-0.162201,
2.727,-0.166321,
2.7275,-0.144653,
2.728,-0.132446,
2.7285,-0.142212,
2.729,-0.164948,
2.7295,-0.19577,
2.73,-0.234833,
2.7305,-0.28717,
2.731,-0.351868,
2.7315,-0.413361,
2.732,-0.464325,
2.7325,-0.486755,
2.733,-0.455017,
2.7335,-0.386963,
2.734,-0.272522,
2.7345,-0.159454,
2.735,-0.0535583,
2.7355,0.126343,
2.736,0.279694,
2.7365,0.246582,
2.737,0.0498962,
2.7375,-0.135956,
2.738,-0.207825,
2.7385,-0.176544,
2.739,-0.0735474,
2.7395,0.0132751,
2.74,0.0256348,
2.7405,0.0592041,
2.741,0.201874,
2.7415,0.343628,
2.742,0.309601,
2.7425,0.167542,
2.743,0.0927734,
2.7435,0.0964355,
2.744,0.0657654,
2.7445,-0.0622559,
2.745,-0.252533,
2.7455,-0.404663,
2.746,-0.501556,
2.7465,-0.666504,
2.747,-0.860138,
2.7475,-0.982819,
2.748,-1.03745,
2.7485,-0.987854,
2.749,-0.768433,
2.7495,-0.399475,
2.75,-0.0248718,
2.7505,0.23407,
2.751,0.470734,
2.7515,0.769653,
2.752,1.08551,
2.7525,1.34521,
2.753,1.49017,
2.7535,1.42548,
2.754,1.13602,
2.7545,0.77179,
2.755,0.485229,
2.7555,0.32135,
2.756,0.244293,
2.7565,0.194855,
2.757,0.131989,
2.7575,0.06073,
2.758,-0.0134277,
2.7585,-0.0924683,
2.759,-0.157928,
2.7595,-0.208435,
2.76,-0.277252,
2.7605,-0.351257,
2.761,-0.39856,
2.7615,-0.410919,
2.762,-0.392609,
2.7625,-0.364532,
2.763,-0.30365,
2.7635,-0.194855,
2.764,-0.093689,
2.7645,-0.00289917,
2.765,0.0831604,
2.7655,0.118561,
2.766,0.137939,
2.7665,0.2005,
2.767,0.326385,
2.7675,0.448303,
2.768,0.50415,
2.7685,0.437164,
2.769,0.296936,
2.7695,0.200043,
2.77,0.142365,
2.7705,0.0518799,
2.771,-0.0738525,
2.7715,-0.162354,
2.772,-0.167847,
2.7725,-0.124664,
2.773,-0.0720215,
2.7735,-0.0289917,
2.774,-0.0126648,
2.7745,-0.0268555,
2.775,-0.0572205,
2.7755,-0.0814819,
2.776,-0.0953674,
2.7765,-0.101471,
2.777,-0.122375,
2.7775,-0.193787,
2.778,-0.313263,
2.7785,-0.440979,
2.779,-0.544434,
2.7795,-0.613861,
2.78,-0.666351,
2.7805,-0.702972,
2.781,-0.736542,
2.7815,-0.775452,
2.782,-0.760193,
2.7825,-0.64682,
2.783,-0.485382,
2.7835,-0.306702,
2.784,-0.0619507,
2.7845,0.205078,
2.785,0.506134,
2.7855,0.892334,
2.786,1.19736,
2.7865,1.18912,
2.787,0.886841,
2.7875,0.584564,
2.788,0.454559,
2.7885,0.419312,
2.789,0.401154,
2.7895,0.376892,
2.79,0.282288,
2.7905,0.106201,
2.791,-0.0604248,
2.7915,-0.167694,
2.792,-0.237885,
2.7925,-0.273438,
2.793,-0.277252,
2.7935,-0.281067,
2.794,-0.326996,
2.7945,-0.361633,
2.795,-0.316467,
2.7955,-0.17746,
2.796,-0.0294495,
2.7965,0.0334167,
2.797,0.0439453,
2.7975,0.122375,
2.798,0.260773,
2.7985,0.287628,
2.799,0.139465,
2.7995,-0.106506,
2.8,-0.3508,
2.8005,-0.510864,
2.801,-0.557709,
2.8015,-0.512543,
2.802,-0.472107,
2.8025,-0.486145,
2.803,-0.558014,
2.8035,-0.664673,
2.804,-0.744324,
2.8045,-0.711517,
2.805,-0.510712,
2.8055,-0.209808,
2.806,0.143738,
2.8065,0.621948,
2.807,1.13663,
2.8075,1.41113,
2.808,1.34567,
2.8085,1.06491,
2.809,0.833893,
2.8095,0.754395,
2.81,0.747833,
2.8105,0.76767,
2.811,0.737762,
2.8115,0.578003,
2.812,0.325928,
2.8125,0.109863,
2.813,-0.00335693,
2.8135,-0.0488281,
2.814,-0.0767517,
2.8145,-0.10376,
2.815,-0.120697,
2.8155,-0.130615,
2.816,-0.138092,
2.8165,-0.145264,
2.817,-0.153809,
2.8175,-0.162048,
2.818,-0.1651,
2.8185,-0.161133,
2.819,-0.157471,
2.8195,-0.156403,
2.82,-0.16449,
2.8205,-0.17395,
2.821,-0.17746,
2.8215,-0.173645,
2.822,-0.170593,
2.8225,-0.178223,
2.823,-0.189667,
2.8235,-0.187836,
2.824,-0.167999,
2.8245,-0.145721,
2.825,-0.135345,
2.8255,-0.150604,
2.826,-0.205383,
2.8265,-0.281677,
2.827,-0.322723,
2.8275,-0.332489,
2.828,-0.333862,
2.8285,-0.50827,
2.829,-0.718689,
2.8295,-0.86441,
2.83,-0.910187,
2.8305,-0.83725,
2.831,-0.649261,
2.8315,-0.411377,
2.832,-0.181427,
2.8325,0.0215149,
2.833,0.292816,
2.8335,0.454865,
2.834,0.496216,
2.8345,0.501099,
2.835,0.824432,
2.8355,1.29959,
2.836,1.48529,
2.8365,1.35895,
2.837,1.19675,
2.8375,1.17737,
2.838,1.25336,
2.8385,1.19308,
2.839,0.933228,
2.8395,0.660858,
2.84,0.458374,
2.8405,0.291138,
2.841,0.13916,
2.8415,0.0346375,
2.842,-0.000915527,
2.8425,0.00244141,
2.843,-0.00198364,
2.8435,-0.0323486,
2.844,-0.0747681,
2.8445,-0.106659,
2.845,-0.132294,
2.8455,-0.166321,
2.846,-0.195618,
2.8465,-0.219116,
2.847,-0.24826,
2.8475,-0.272217,
2.848,-0.278625,
2.8485,-0.277863,
2.849,-0.283508,
2.8495,-0.296326,
2.85,-0.316162,
2.8505,-0.326538,
2.851,-0.310211,
2.8515,-0.264587,
2.852,-0.200653,
2.8525,-0.153046,
2.853,-0.157318,
2.8535,-0.196838,
2.854,-0.233307,
2.8545,-0.236053,
2.855,-0.177307,
2.8555,-0.0669861,
2.856,0.0471497,
2.8565,0.119019,
2.857,0.171509,
2.8575,0.19165,
2.858,0.148926,
2.8585,0.0756836,
2.859,0.00442505,
2.8595,-0.0909424,
2.86,-0.185089,
2.8605,-0.210571,
2.861,-0.158691,
2.8615,-0.121002,
2.862,-0.145264,
2.8625,-0.20813,
2.863,-0.2771,
2.8635,-0.259552,
2.864,-0.0762939,
2.8645,0.194702,
2.865,0.381622,
2.8655,0.355072,
2.866,0.200958,
2.8665,0.0914001,
2.867,0.0866699,
2.8675,0.143433,
2.868,0.19043,
2.8685,0.218811,
2.869,0.275269,
2.8695,0.309296,
2.87,0.245819,
2.8705,0.143738,
2.871,0.109558,
2.8715,0.129089,
2.872,0.0819397,
2.8725,-0.0608826,
2.873,-0.172577,
2.8735,-0.179901,
2.874,-0.168152,
2.8745,-0.188141,
2.875,-0.175629,
2.8755,-0.12085,
2.876,-0.0674438,
2.8765,-0.045929,
2.877,-0.0674438,
2.8775,-0.088501,
2.878,-0.0485229,
2.8785,0.0617981,
2.879,0.166473,
2.8795,0.192719,
2.88,0.153198,
2.8805,0.0582886,
2.881,-0.0764465,
2.8815,-0.203247,
2.882,-0.304565,
2.8825,-0.419769,
2.883,-0.54657,
2.8835,-0.6987,
2.884,-0.864105,
2.8845,-0.948639,
2.885,-0.82901,
2.8855,-0.573273,
2.886,-0.334167,
2.8865,-0.11322,
2.887,0.118103,
2.8875,0.282135,
2.888,0.396881,
2.8885,0.534363,
2.889,0.707703,
2.8895,0.950165,
2.89,1.19217,
2.8905,1.22513,
2.891,0.922546,
2.8915,0.503693,
2.892,0.255127,
2.8925,0.153046,
2.893,0.0421143,
2.8935,-0.0985718,
2.894,-0.225677,
2.8945,-0.324249,
2.895,-0.42923,
2.8955,-0.537415,
2.896,-0.596924,
2.8965,-0.625,
2.897,-0.618439,
2.8975,-0.557404,
2.898,-0.450439,
2.8985,-0.273285,
2.899,-0.0292969,
2.8995,0.256805,
2.9,0.509949,
2.9005,0.670624,
2.901,0.773163,
2.9015,0.813904,
2.902,0.720062,
2.9025,0.567017,
2.903,0.443726,
2.9035,0.304565,
2.904,0.139313,
2.9045,-0.00198364,
2.905,-0.0765991,
2.9055,-0.0964355,
2.906,-0.0938416,
2.9065,-0.093689,
2.907,-0.0675964,
2.9075,-0.0361633,
2.908,-0.0382996,
2.9085,-0.030365,
2.909,0.0262451,
2.9095,0.0498962,
2.91,0.025177,
2.9105,0.00213623,
2.911,-0.0592041,
2.9115,-0.181122,
2.912,-0.299835,
2.9125,-0.378418,
2.913,-0.426636,
2.9135,-0.461273,
2.914,-0.460052,
2.9145,-0.393677,
2.915,-0.313416,
2.9155,-0.254364,
2.916,-0.156097,
2.9165,-0.0363159,
2.917,0.00335693,
2.9175,-0.0820923,
2.918,-0.158997,
2.9185,-0.098114,
2.919,0.0895691,
2.9195,0.262299,
2.92,0.373993,
2.9205,0.444489,
2.921,0.379486,
2.9215,0.215454,
2.922,0.14679,
2.9225,0.204773,
2.923,0.241852,
2.9235,0.223236,
2.924,0.235291,
2.9245,0.283813,
2.925,0.248413,
2.9255,0.0808716,
2.926,-0.0991821,
2.9265,-0.196838,
2.927,-0.229034,
2.9275,-0.225983,
2.928,-0.223541,
2.9285,-0.245361,
2.929,-0.287323,
2.9295,-0.291595,
2.93,-0.232544,
2.9305,-0.132294,
2.931,0.0328064,
2.9315,0.243835,
2.932,0.352936,
2.9325,0.305786,
2.933,0.255432,
2.9335,0.306854,
2.934,0.362701,
2.9345,0.342102,
2.935,0.291748,
2.9355,0.219727,
2.936,0.110626,
2.9365,0.00488281,
2.937,-0.055542,
2.9375,-0.0764465,
2.938,-0.0862122,
2.9385,-0.0819397,
2.939,-0.0727844,
2.9395,-0.0666809,
2.94,-0.0588989,
2.9405,-0.0558472,
2.941,-0.0778198,
2.9415,-0.0991821,
2.942,-0.151672,
2.9425,-0.291748,
2.943,-0.419769,
2.9435,-0.405884,
2.944,-0.2948,
2.9445,-0.179596,
2.945,-0.0990295,
2.9455,-0.0531006,
2.946,-0.0288391,
2.9465,-0.00762939,
2.947,0.0154114,
2.9475,0.050354,
2.948,0.0976563,
2.9485,0.111847,
2.949,0.070343,
2.9495,0.0119019,
2.95,-0.0595093,
2.9505,-0.131073,
2.951,-0.184174,
2.9515,-0.207214,
2.952,-0.20813,
2.9525,-0.213776,
2.953,-0.205994,
2.9535,-0.155029,
2.954,-0.0601196,
2.9545,0.0314331,
2.955,0.0907898,
2.9555,0.148468,
2.956,0.2388,
2.9565,0.310059,
2.957,0.225983,
2.9575,-0.0160217,
2.958,-0.25116,
2.9585,-0.352173,
2.959,-0.35675,
2.9595,-0.343628,
2.96,-0.332489,
2.9605,-0.315399,
2.961,-0.280457,
2.9615,-0.235291,
2.962,-0.173035,
2.9625,-0.106812,
2.963,-0.0201416,
2.9635,0.157776,
2.964,0.410156,
2.9645,0.617065,
2.965,0.669403,
2.9655,0.572205,
2.966,0.379028,
2.9665,0.142517,
2.967,-0.0175476,
2.9675,-0.0177002,
2.968,0.0761414,
2.9685,0.14679,
2.969,0.162201,
2.9695,0.175476,
2.97,0.154114,
2.9705,0.0939941,
2.971,0.0444031,
2.9715,-0.0241089,
2.972,-0.131531,
2.9725,-0.254211,
2.973,-0.370178,
2.9735,-0.469971,
2.974,-0.574188,
2.9745,-0.69519,
2.975,-0.737,
2.9755,-0.664368,
2.976,-0.532837,
2.9765,-0.396271,
2.977,-0.262299,
2.9775,-0.0860596,
2.978,0.11261,
2.9785,0.241089,
2.979,0.286102,
2.9795,0.350647,
2.98,0.493622,
2.9805,0.641174,
2.981,0.727692,
2.9815,0.750885,
2.982,0.771484,
2.9825,0.753021,
2.983,0.575867,
2.9835,0.275879,
2.984,0.0198364,
2.9845,-0.10849,
2.985,-0.141296,
2.9855,-0.131226,
2.986,-0.114441,
2.9865,-0.101929,
2.987,-0.0830078,
2.9875,-0.0610352,
2.988,-0.0523376,
2.9885,-0.0166321,
2.989,0.0869751,
2.9895,0.227051,
2.99,0.311432,
2.9905,0.246124,
2.991,0.10025,
2.9915,-0.00518799,
2.992,-0.0454712,
2.9925,-0.0604248,
2.993,-0.0706482,
2.9935,-0.075531,
2.994,-0.0610352,
2.9945,-0.0416565,
2.995,-0.0410461,
2.9955,-0.0526428,
2.996,-0.0646973,
2.9965,-0.0883484,
2.997,-0.124359,
2.9975,-0.155334,
2.998,-0.181122,
2.9985,-0.223541,
2.999,-0.279999,
2.9995,-0.322876,
3,-0.321503,
3.0005,-0.255432,
3.001,-0.170898,
3.0015,-0.141907,
3.002,-0.140076,
3.0025,-0.119629,
3.003,-0.0721741,
3.0035,0.00213623,
3.004,0.0752258,
3.0045,0.142517,
3.005,0.203857,
3.0055,0.227356,
3.006,0.229645,
3.0065,0.227814,
3.007,0.208435,
3.0075,0.161743,
3.008,0.0968933,
3.0085,0.038147,
3.009,-0.00747681,
3.0095,-0.0471497,
3.01,-0.0906372,
3.0105,-0.137329,
3.011,-0.196991,
3.0115,-0.244751,
3.012,-0.234528,
3.0125,-0.190735,
3.013,-0.167999,
3.0135,-0.188446,
3.014,-0.229034,
3.0145,-0.236206,
3.015,-0.202637,
3.0155,-0.154114,
3.016,-0.120544,
3.0165,-0.117035,
3.017,-0.128326,
3.0175,-0.182343,
3.018,-0.282593,
3.0185,-0.329437,
3.019,-0.316925,
3.0195,-0.340118,
3.02,-0.40802,
3.0205,-0.408173,
3.021,-0.327606,
3.0215,-0.223999,
3.022,-0.126801,
3.0225,-0.0846863,
3.023,-0.0843811,
3.0235,-0.00595093,
3.024,0.233917,
3.0245,0.624084,
3.025,1.06216,
3.0255,1.29684,
3.026,1.20712,
3.0265,0.937805,
3.027,0.683594,
3.0275,0.520782,
3.028,0.402679,
3.0285,0.266724,
3.029,0.127869,
3.0295,0.0312805,
3.03,-0.00701904,
3.0305,-0.0149536,
3.031,-0.0158691,
3.0315,-0.0157166,
3.032,-0.03479,
3.0325,-0.0546265,
3.033,-0.045929,
3.0335,-0.0437927,
3.034,-0.0660706,
3.0345,-0.0765991,
3.035,-0.0639343,
3.0355,-0.0328064,
3.036,0.0318909,
3.0365,0.125275,
3.037,0.139618,
3.0375,0.0161743,
3.038,-0.181122,
3.0385,-0.399017,
3.039,-0.592957,
3.0395,-0.703735,
3.04,-0.716095,
3.0405,-0.641174,
3.041,-0.489502,
3.0415,-0.298615,
3.042,-0.119324,
3.0425,0.0311279,
3.043,0.184326,
3.0435,0.361328,
3.044,0.523529,
3.0445,0.532837,
3.045,0.373993,
3.0455,0.185547,
3.046,0.0439453,
3.0465,-0.0750732,
3.047,-0.179443,
3.0475,-0.220184,
3.048,-0.165863,
3.0485,-0.0567627,
3.049,0.0395203,
3.0495,0.127869,
3.05,0.222473,
3.0505,0.307007,
3.051,0.371857,
3.0515,0.402679,
3.052,0.388489,
3.0525,0.315704,
3.053,0.196991,
3.0535,0.0862122,
3.054,0.0190735,
3.0545,-0.0177002,
3.055,-0.0549316,
3.0555,-0.104828,
3.056,-0.148315,
3.0565,-0.170135,
3.057,-0.174713,
3.0575,-0.207672,
3.058,-0.293121,
3.0585,-0.393372,
3.059,-0.474701,
3.0595,-0.494995,
3.06,-0.444946,
3.0605,-0.354767,
3.061,-0.226898,
3.0615,-0.0804138,
3.062,0.0454712,
3.0625,0.123291,
3.063,0.155792,
3.0635,0.155792,
3.064,0.128479,
3.0645,0.107269,
3.065,0.0845337,
3.0655,0.0508118,
3.066,-0.0256348,
3.0665,-0.122986,
3.067,-0.159302,
3.0675,-0.121002,
3.068,-0.0805664,
3.0685,-0.0714111,
3.069,-0.0279236,
3.0695,0.0778198,
3.07,0.23819,
3.0705,0.343475,
3.071,0.302124,
3.0715,0.180817,
3.072,0.104828,
3.0725,0.1297,
3.073,0.183868,
3.0735,0.189819,
3.074,0.180817,
3.0745,0.169373,
3.075,0.126038,
3.0755,0.0434875,
3.076,-0.0384521,
3.0765,-0.0889587,
3.077,-0.114136,
3.0775,-0.147095,
3.078,-0.19516,
3.0785,-0.238953,
3.079,-0.263977,
3.0795,-0.288849,
3.08,-0.310211,
3.0805,-0.308075,
3.081,-0.265656,
3.0815,-0.215912,
3.082,-0.255127,
3.0825,-0.379028,
3.083,-0.432129,
3.0835,-0.359344,
3.084,-0.246582,
3.0845,-0.162659,
3.085,-0.0941467,
3.0855,-0.00457764,
3.086,0.0450134,
3.0865,0.00366211,
3.087,0.00137329,
3.0875,0.146637,
3.088,0.400696,
3.0885,0.621033,
3.089,0.708466,
3.0895,0.69931,
3.09,0.621185,
3.0905,0.496521,
3.091,0.337524,
3.0915,0.142517,
3.092,-0.0271606,
3.0925,-0.098114,
3.093,-0.0733948,
3.0935,-0.0050354,
3.094,0.0440979,
3.0945,0.032959,
3.095,-0.0267029,
3.0955,-0.0802612,
3.096,-0.0752258,
3.0965,0.0331116,
3.097,0.219421,
3.0975,0.355072,
3.098,0.354919,
3.0985,0.293579,
3.099,0.210266,
3.0995,0.103455,
3.1,0.00289917,
3.1005,-0.0663757,
3.101,-0.100861,
3.1015,-0.109253,
3.102,-0.0994873,
3.1025,-0.0588989,
3.103,-0.0152588,
3.1035,-0.000610352,
3.104,0.020752,
3.1045,0.0769043,
3.105,0.122833,
3.1055,0.0958252,
3.106,0.0282288,
3.1065,-0.0331116,
3.107,-0.116425,
3.1075,-0.219269,
3.108,-0.305786,
3.1085,-0.404968,
3.109,-0.531006,
3.1095,-0.652618,
3.11,-0.734558,
3.1105,-0.722961,
3.111,-0.612946,
3.1115,-0.436096,
3.112,-0.243683,
3.1125,-0.0584412,
3.113,0.175934,
3.1135,0.437164,
3.114,0.652924,
3.1145,0.733185,
3.115,0.635529,
3.1155,0.458527,
3.116,0.294495,
3.1165,0.184937,
3.117,0.106964,
3.1175,0.0202942,
3.118,-0.0553894,
3.1185,-0.109406,
3.119,-0.149689,
3.1195,-0.131073,
3.12,-0.0473022,
3.1205,-0.0184631,
3.121,-0.0978088,
3.1215,-0.214233,
3.122,-0.336151,
3.1225,-0.44342,
3.123,-0.47821,
3.1235,-0.444794,
3.124,-0.359192,
3.1245,-0.204163,
3.125,-0.0340271,
3.1255,0.0854492,
3.126,0.153809,
3.1265,0.240021,
3.127,0.383606,
3.1275,0.525818,
3.128,0.632019,
3.1285,0.70755,
3.129,0.704346,
3.1295,0.614777,
3.13,0.450897,
3.1305,0.220795,
3.131,-0.00595093,
3.1315,-0.152588,
3.132,-0.218353,
3.1325,-0.241547,
3.133,-0.23407,
3.1335,-0.207214,
3.134,-0.171509,
3.1345,-0.0939941,
3.135,0.0517273,
3.1355,0.212097,
3.136,0.247345,
3.1365,0.0965881,
3.137,-0.0828552,
3.1375,-0.121765,
3.138,-0.0636292,
3.1385,0.0038147,
3.139,0.0234985,
3.1395,0.00274658,
3.14,-0.025177,
3.1405,-0.0708008,
3.141,-0.154724,
3.1415,-0.267944,
3.142,-0.341644,
3.1425,-0.296326,
3.143,-0.203247,
3.1435,-0.185547,
3.144,-0.207062,
3.1445,-0.18219,
3.145,-0.135345,
3.1455,-0.131531,
3.146,-0.131073,
3.1465,-0.0614929,
3.147,0.0953674,
3.1475,0.274811,
3.148,0.372772,
3.1485,0.365448,
3.149,0.297546,
3.1495,0.203857,
3.15,0.129242,
3.1505,0.0675964,
3.151,-0.0157166,
3.1515,-0.0952148,
3.152,-0.133972,
3.1525,-0.142975,
3.153,-0.142059,
3.1535,-0.143127,
3.154,-0.154572,
3.1545,-0.155029,
3.155,-0.123596,
3.1555,-0.105286,
3.156,-0.147095,
3.1565,-0.17868,
3.157,-0.132294,
3.1575,-0.0231934,
3.158,0.0817871,
3.1585,0.115814,
3.159,0.0820923,
3.1595,0.0370789,
3.16,0.0125122,
3.1605,0.0250244,
3.161,0.045166,
3.1615,0.0465393,
3.162,0.0239563,
3.1625,-0.00747681,
3.163,-0.00778198,
3.1635,0.019989,
3.164,0.0282288,
3.1645,0.0192261,
3.165,0.0219727,
3.1655,0.0390625,
3.166,0.0544739,
3.1665,0.0549316,
3.167,0.0296021,
3.1675,-0.00183105,
3.168,-0.010376,
3.1685,0.00411987,
3.169,0.0140381,
3.1695,0.00427246,
3.17,-0.025177,
3.1705,-0.0544739,
3.171,-0.0756836,
3.1715,-0.0907898,
3.172,-0.0982666,
3.1725,-0.0970459,
3.173,-0.0942993,
3.1735,-0.0987244,
3.174,-0.101013,
3.1745,-0.0961304,
3.175,-0.0860596,
3.1755,-0.0767517,
3.176,-0.0701904,
3.1765,-0.0675964,
3.177,-0.072937,
3.1775,-0.0799561,
3.178,-0.0782776,
3.1785,-0.0827026,
3.179,-0.0961304,
3.1795,-0.139771,
3.18,-0.22995,
3.1805,-0.336761,
3.181,-0.42038,
3.1815,-0.482178,
3.182,-0.516205,
3.1825,-0.531006,
3.183,-0.510101,
3.1835,-0.430908,
3.184,-0.29007,
3.1845,-0.114288,
3.185,0.0758362,
3.1855,0.286865,
3.186,0.441742,
3.1865,0.464325,
3.187,0.389709,
3.1875,0.303192,
3.188,0.254059,
3.1885,0.207672,
3.189,0.117798,
3.1895,0.0694275,
3.19,0.210266,
3.1905,0.534973,
3.191,0.877533,
3.1915,0.966644,
3.192,0.778656,
3.1925,0.52063,
3.193,0.311279,
3.1935,0.149689,
3.194,0.0354004,
3.1945,-0.0274658,
3.195,-0.0483704,
3.1955,-0.045166,
3.196,-0.0334167,
3.1965,-0.0125122,
3.197,0.0253296,
3.1975,0.0480652,
3.198,0.039978,
3.1985,0.0283813,
3.199,0.0244141,
3.1995,0.0245667,
3.2,0.0270081,
3.2005,0.0184631,
3.201,-0.00488281,
3.2015,-0.0302124,
3.202,-0.03479,
3.2025,-0.0233459,
3.203,-0.00900269,
3.2035,-0.0215149,
3.204,-0.0730896,
3.2045,-0.128174,
3.205,-0.153809,
3.2055,-0.159607,
3.206,-0.179901,
3.2065,-0.206604,
3.207,-0.217285,
3.2075,-0.203094,
3.208,-0.159454,
3.2085,-0.105896,
3.209,-0.0588989,
3.2095,-0.0292969,
3.21,-0.0105286,
3.2105,0.0132751,
3.211,0.0268555,
3.2115,0.0109863,
3.212,-0.0160217,
3.2125,-0.0228882,
3.213,-0.0215149,
3.2135,-0.0592041,
3.214,-0.144043,
3.2145,-0.220642,
3.215,-0.255127,
3.2155,-0.246582,
3.216,-0.200195,
3.2165,-0.119019,
3.217,-0.0376892,
3.2175,-0.00259399,
3.218,0.00183105,
3.2185,-0.0134277,
3.219,-0.0776672,
3.2195,-0.166473,
3.22,-0.176849,
3.2205,-0.0628662,
3.221,0.129395,
3.2215,0.296631,
3.222,0.329285,
3.2225,0.249634,
3.223,0.162811,
3.2235,0.122375,
3.224,0.115814,
3.2245,0.111084,
3.225,0.116272,
3.2255,0.11795,
3.226,0.116577,
3.2265,0.135956,
3.227,0.151978,
3.2275,0.144501,
3.228,0.0863647,
3.2285,-0.00595093,
3.229,-0.0918579,
3.2295,-0.158234,
3.23,-0.196075,
3.2305,-0.197601,
3.231,-0.15213,
3.2315,-0.0141907,
3.232,0.172577,
3.2325,0.243835,
3.233,0.158386,
3.2335,0.0566101,
3.234,0.00244141,
3.2345,-0.0349426,
3.235,-0.071106,
3.2355,-0.0892639,
3.236,-0.0737,
3.2365,-0.0570679,
3.237,-0.0471497,
3.2375,-0.00839233,
3.238,0.0343323,
3.2385,0.0431824,
3.239,0.0267029,
3.2395,0.00991821,
3.24,0.0180054,
3.2405,0.0532532,
3.241,0.0982666,
3.2415,0.131378,
3.242,0.141602,
3.2425,0.132904,
3.243,0.0984192,
3.2435,0.0415039,
3.244,0.00656128,
3.2445,0.00793457,
3.245,0.0215149,
3.2455,0.01297,
3.246,-0.0244141,
3.2465,-0.0579834,
3.247,-0.0700378,
3.2475,-0.0717163,
3.248,-0.0666809,
3.2485,-0.0532532,
3.249,-0.0335693,
3.2495,-0.0256348,
3.25,-0.0212097,
3.2505,-0.00244141,
3.251,0.00137329,
3.2515,-0.0300598,
3.252,-0.0650024,
3.2525,-0.0854492,
3.253,-0.0987244,
3.2535,-0.102234,
3.254,-0.09552,
3.2545,-0.1091,
3.255,-0.152588,
3.2555,-0.195313,
3.256,-0.214233,
3.2565,-0.224304,
3.257,-0.236816,
3.2575,-0.244904,
3.258,-0.232086,
3.2585,-0.176849,
3.259,-0.105743,
3.2595,-0.0349426,
3.26,0.040741,
3.2605,0.106659,
3.261,0.165863,
3.2615,0.209351,
3.262,0.206146,
3.2625,0.147858,
3.263,0.0737,
3.2635,0.0227356,
3.264,-0.0256348,
3.2645,-0.0666809,
3.265,-0.103607,
3.2655,-0.109863,
3.266,-0.0643921,
3.2665,-0.0289917,
3.267,-0.0473022,
3.2675,-0.093689,
3.268,-0.121307,
3.2685,-0.100861,
3.269,-0.0334167,
3.2695,0.0186157,
