0,-0.0144958,
0.0005,-0.0172424,
0.001,-0.0167847,
0.0015,-0.0137329,
0.002,-0.0128174,
0.0025,-0.0105286,
0.003,-0.00976563,
0.0035,-0.0108337,
0.004,-0.00793457,
0.0045,-0.00701904,
0.005,-0.00839233,
0.0055,-0.00274658,
0.006,0.000610352,
0.0065,-0.00610352,
0.007,-0.015564,
0.0075,-0.0161743,
0.008,-0.00869751,
0.0085,0.000915527,
0.009,0.00686646,
0.0095,0.00579834,
0.01,-0.00183105,
0.0105,-0.00808716,
0.011,-0.0123596,
0.0115,-0.012207,
0.012,-0.00717163,
0.0125,-0.00259399,
0.013,0.00350952,
0.0135,0.00808716,
0.014,0.0100708,
0.0145,0.0100708,
0.015,0.00976563,
0.0155,0.00457764,
0.016,-0.00427246,
0.0165,-0.0100708,
0.017,-0.0102234,
0.0175,-0.0102234,
0.018,-0.0119019,
0.0185,-0.0135803,
0.019,-0.0154114,
0.0195,-0.0180054,
0.02,-0.0192261,
0.0205,-0.0198364,
0.021,-0.0212097,
0.0215,-0.0209045,
0.022,-0.0210571,
0.0225,-0.0233459,
0.023,-0.0234985,
0.0235,-0.0135803,
0.024,0.0038147,
0.0245,0.019989,
0.025,0.0274658,
0.0255,0.0247192,
0.026,0.0172424,
0.0265,0.00976563,
0.027,0.00427246,
0.0275,0.000305176,
0.028,-0.000457764,
0.0285,-0.000610352,
0.029,0.00305176,
0.0295,0.00839233,
0.03,0.0135803,
0.0305,0.0170898,
0.031,0.0166321,
0.0315,0.0161743,
0.032,0.0132751,
0.0325,0.00930786,
0.033,0.00579834,
0.0335,0.00518799,
0.034,0.00137329,
0.0345,-0.00259399,
0.035,-0.00427246,
0.0355,-0.00320435,
0.036,-0.000762939,
0.0365,0.000610352,
0.037,-0.0012207,
0.0375,-0.00335693,
0.038,-0.00320435,
0.0385,0.000152588,
0.039,0.00228882,
0.0395,0.00427246,
0.04,0.00106812,
0.0405,-0.00564575,
0.041,-0.0105286,
0.0415,-0.010376,
0.042,-0.00701904,
0.0425,-0.000762939,
0.043,0.00610352,
0.0435,0.0125122,
0.044,0.015564,
0.0445,0.0143433,
0.045,0.0157166,
0.0455,0.0169373,
0.046,0.0112915,
0.0465,0.00595093,
0.047,0.00915527,
0.0475,0.0198364,
0.048,0.0241089,
0.0485,0.0215149,
0.049,0.0151062,
0.0495,0.00732422,
0.05,-0.00228882,
0.0505,-0.0100708,
0.051,-0.014801,
0.0515,-0.0119019,
0.052,-0.00350952,
0.0525,0.0114441,
0.053,0.0248718,
0.0535,0.0268555,
0.054,0.0202942,
0.0545,0.0141907,
0.055,0.00671387,
0.0555,-0.00442505,
0.056,-0.0109863,
0.0565,-0.00747681,
0.057,-0.00305176,
0.0575,-0.00228882,
0.058,-0.00579834,
0.0585,-0.0120544,
0.059,-0.020752,
0.0595,-0.0245667,
0.06,-0.027771,
0.0605,-0.0297546,
0.061,-0.0308228,
0.0615,-0.0302124,
0.062,-0.0274658,
0.0625,-0.0260925,
0.063,-0.0224304,
0.0635,-0.0149536,
0.064,-0.00915527,
0.0645,-0.00732422,
0.065,-0.00244141,
0.0655,0.012207,
0.066,0.0312805,
0.0665,0.0390625,
0.067,0.0305176,
0.0675,0.0125122,
0.068,-0.00152588,
0.0685,-0.00350952,
0.069,-0.00366211,
0.0695,-0.00457764,
0.07,-0.00961304,
0.0705,-0.0166321,
0.071,-0.0178528,
0.0715,-0.00656128,
0.072,0.00976563,
0.0725,0.022583,
0.073,0.0236511,
0.0735,0.015564,
0.074,0.000305176,
0.0745,-0.0112915,
0.075,-0.0135803,
0.0755,-0.0108337,
0.076,-0.00915527,
0.0765,-0.0144958,
0.077,-0.0170898,
0.0775,-0.017395,
0.078,-0.0263977,
0.0785,-0.0366211,
0.079,-0.0405884,
0.0795,-0.0387573,
0.08,-0.0328064,
0.0805,-0.0236511,
0.081,-0.0138855,
0.0815,-0.0108337,
0.082,-0.0119019,
0.0825,-0.01297,
0.083,-0.01297,
0.0835,-0.0137329,
0.084,-0.0152588,
0.0845,-0.0137329,
0.085,-0.0120544,
0.0855,-0.0138855,
0.086,-0.0170898,
0.0865,-0.0198364,
0.087,-0.0215149,
0.0875,-0.0263977,
0.088,-0.0326538,
0.0885,-0.035553,
0.089,-0.0340271,
0.0895,-0.0250244,
0.09,-0.014801,
0.0905,-0.00808716,
0.091,-0.00869751,
0.0915,-0.0105286,
0.092,-0.0126648,
0.0925,-0.0125122,
0.093,-0.0112915,
0.0935,-0.0100708,
0.094,-0.00823975,
0.0945,-0.00701904,
0.095,-0.00549316,
0.0955,0.0012207,
0.096,0.00640869,
0.0965,0.00488281,
0.097,0.00198364,
0.0975,0.00396729,
0.098,0.00534058,
0.0985,0.00534058,
0.099,0.00549316,
0.0995,0.00579834,
0.1,0.00946045,
0.1005,0.0117493,
0.101,0.010376,
0.1015,0.00732422,
0.102,0.00610352,
0.1025,0.00991821,
0.103,0.0138855,
0.1035,0.0131226,
0.104,0.0120544,
0.1045,0.0111389,
0.105,0.00747681,
0.1055,0.00167847,
0.106,-0.00411987,
0.1065,-0.00732422,
0.107,-0.00869751,
0.1075,-0.0108337,
0.108,-0.0109863,
0.1085,-0.00900269,
0.109,-0.00793457,
0.1095,-0.00762939,
0.11,-0.00427246,
0.1105,0.000915527,
0.111,0.00320435,
0.1115,-0.00167847,
0.112,-0.00961304,
0.1125,-0.0128174,
0.113,-0.00564575,
0.1135,0.00320435,
0.114,0.00610352,
0.1145,0.00640869,
0.115,0.00686646,
0.1155,0.0088501,
0.116,0.00839233,
0.1165,0.00823975,
0.117,0.00976563,
0.1175,0.00808716,
0.118,0.00274658,
0.1185,-0.00274658,
0.119,-0.00350952,
0.1195,-0.0038147,
0.12,-0.00747681,
0.1205,-0.0132751,
0.121,-0.0154114,
0.1215,-0.0160217,
0.122,-0.0160217,
0.1225,-0.0140381,
0.123,-0.0102234,
0.1235,0.000152588,
0.124,0.0105286,
0.1245,0.01297,
0.125,0.00854492,
0.1255,0.00518799,
0.126,0.00152588,
0.1265,0.00259399,
0.127,0.00442505,
0.1275,0.00549316,
0.128,0.00839233,
0.1285,0.00991821,
0.129,0.0123596,
0.1295,0.0234985,
0.13,0.037384,
0.1305,0.0428772,
0.131,0.0358582,
0.1315,0.0219727,
0.132,0.0112915,
0.1325,0.010376,
0.133,0.0102234,
0.1335,0.00427246,
0.134,-0.0012207,
0.1345,0.00106812,
0.135,0.0117493,
0.1355,0.020752,
0.136,0.0270081,
0.1365,0.0294495,
0.137,0.027771,
0.1375,0.0239563,
0.138,0.0205994,
0.1385,0.0157166,
0.139,0.00946045,
0.1395,0.0050354,
0.14,-0.00259399,
0.1405,-0.0140381,
0.141,-0.0137329,
0.1415,0.000457764,
0.142,0.0105286,
0.1425,0.0112915,
0.143,0.0149536,
0.1435,0.0213623,
0.144,0.0274658,
0.1445,0.0270081,
0.145,0.015564,
0.1455,-0.00259399,
0.146,-0.0149536,
0.1465,-0.0152588,
0.147,-0.00473022,
0.1475,0.00183105,
0.148,-0.00183105,
0.1485,-0.00930786,
0.149,-0.0157166,
0.1495,-0.0236511,
0.15,-0.0300598,
0.1505,-0.0273132,
0.151,-0.00778198,
0.1515,0.0170898,
0.152,0.0343323,
0.1525,0.0376892,
0.153,0.025177,
0.1535,0.00411987,
0.154,-0.0115967,
0.1545,-0.0192261,
0.155,-0.0209045,
0.1555,-0.0184631,
0.156,-0.0175476,
0.1565,-0.0212097,
0.157,-0.027771,
0.1575,-0.0311279,
0.158,-0.0274658,
0.1585,-0.0224304,
0.159,-0.0189209,
0.1595,-0.0144958,
0.16,-0.0134277,
0.1605,-0.0135803,
0.161,-0.0151062,
0.1615,-0.014801,
0.162,-0.0131226,
0.1625,-0.0117493,
0.163,-0.0115967,
0.1635,-0.00946045,
0.164,-0.0106812,
0.1645,-0.0137329,
0.165,-0.015564,
0.1655,-0.0144958,
0.166,-0.0160217,
0.1665,-0.0172424,
0.167,-0.0186157,
0.1675,-0.0193787,
0.168,-0.0178528,
0.1685,-0.0169373,
0.169,-0.0161743,
0.1695,-0.0125122,
0.17,-0.00549316,
0.1705,0.00366211,
0.171,0.00946045,
0.1715,0.0119019,
0.172,0.014801,
0.1725,0.0177002,
0.173,0.0166321,
0.1735,0.00900269,
0.174,-0.00228882,
0.1745,-0.0062561,
0.175,-0.00869751,
0.1755,-0.014801,
0.176,-0.0183105,
0.1765,-0.0183105,
0.177,-0.0187683,
0.1775,-0.020752,
0.178,-0.0212097,
0.1785,-0.0140381,
0.179,0.00152588,
0.1795,0.0186157,
0.18,0.0311279,
0.1805,0.0350952,
0.181,0.0312805,
0.1815,0.0262451,
0.182,0.0230408,
0.1825,0.0241089,
0.183,0.0276184,
0.1835,0.0309753,
0.184,0.0317383,
0.1845,0.0276184,
0.185,0.019989,
0.1855,0.00839233,
0.186,-0.00427246,
0.1865,-0.0112915,
0.187,-0.0109863,
0.1875,-0.0105286,
0.188,-0.0146484,
0.1885,-0.0216675,
0.189,-0.0212097,
0.1895,-0.0160217,
0.19,-0.0114441,
0.1905,-0.0138855,
0.191,-0.0170898,
0.1915,-0.0137329,
0.192,-0.00854492,
0.1925,-0.00930786,
0.193,-0.0108337,
0.1935,-0.00595093,
0.194,0.00228882,
0.1945,0.00564575,
0.195,0.000610352,
0.1955,-0.00686646,
0.196,-0.0126648,
0.1965,-0.0149536,
0.197,-0.00946045,
0.1975,-0.00289917,
0.198,0,
0.1985,0.000915527,
0.199,0.00610352,
0.1995,0.0125122,
0.2,0.0117493,
0.2005,0.0062561,
0.201,0.00549316,
0.2015,0.00610352,
0.202,0.00518799,
0.2025,0.00152588,
0.203,-0.00320435,
0.2035,-0.00717163,
0.204,-0.0102234,
0.2045,-0.0100708,
0.205,-0.00869751,
0.2055,-0.00808716,
0.206,-0.00762939,
0.2065,-0.00762939,
0.207,-0.0102234,
0.2075,-0.0112915,
0.208,-0.00671387,
0.2085,0.00152588,
0.209,0.00854492,
0.2095,0.00854492,
0.21,0.00656128,
0.2105,0.00534058,
0.211,0.00488281,
0.2115,0.00213623,
0.212,0.0012207,
0.2125,0.00457764,
0.213,0.0109863,
0.2135,0.01297,
0.214,0.0106812,
0.2145,0.00854492,
0.215,0.00717163,
0.2155,0.0062561,
0.216,0.00350952,
0.2165,0.00167847,
0.217,0.00167847,
0.2175,0.000305176,
0.218,-0.000610352,
0.2185,-0.00213623,
0.219,-0.00473022,
0.2195,-0.00427246,
0.22,0,
0.2205,0.00534058,
0.221,0.00762939,
0.2215,0.00427246,
0.222,-0.00442505,
0.2225,-0.0114441,
0.223,-0.0152588,
0.2235,-0.015564,
0.224,-0.0120544,
0.2245,-0.00717163,
0.225,0.00442505,
0.2255,0.0161743,
0.226,0.0163269,
0.2265,0.0102234,
0.227,0.00686646,
0.2275,0.00793457,
0.228,0.00915527,
0.2285,0.0109863,
0.229,0.00839233,
0.2295,0.000305176,
0.23,-0.00564575,
0.2305,-0.00534058,
0.231,-0.00442505,
0.2315,-0.00534058,
0.232,-0.00579834,
0.2325,-0.00656128,
0.233,-0.0109863,
0.2335,-0.0160217,
0.234,-0.0228882,
0.2345,-0.0294495,
0.235,-0.0309753,
0.2355,-0.0212097,
0.236,-0.0100708,
0.2365,-0.0111389,
0.237,-0.0219727,
0.2375,-0.0259399,
0.238,-0.0212097,
0.2385,-0.0187683,
0.239,-0.0244141,
0.2395,-0.0308228,
0.24,-0.0247192,
0.2405,-0.00274658,
0.241,0.0259399,
0.2415,0.043335,
0.242,0.0453186,
0.2425,0.0305176,
0.243,0.015564,
0.2435,0.0160217,
0.244,0.0250244,
0.2445,0.0259399,
0.245,0.0157166,
0.2455,0.00259399,
0.246,-0.0119019,
0.2465,-0.0262451,
0.247,-0.03479,
0.2475,-0.0323486,
0.248,-0.0267029,
0.2485,-0.0238037,
0.249,-0.0236511,
0.2495,-0.0204468,
0.25,-0.0196838,
0.2505,-0.0263977,
0.251,-0.0253296,
0.2515,-0.00442505,
0.252,0.0238037,
0.2525,0.042572,
0.253,0.0456238,
0.2535,0.0379944,
0.254,0.0234985,
0.2545,0.000915527,
0.255,-0.0230408,
0.2555,-0.0427246,
0.256,-0.057373,
0.2565,-0.0691223,
0.257,-0.0720215,
0.2575,-0.0621033,
0.258,-0.0447083,
0.2585,-0.0257874,
0.259,-0.0198364,
0.2595,-0.0248718,
0.26,-0.0193787,
0.2605,0.00946045,
0.261,0.0495911,
0.2615,0.0785828,
0.262,0.0886536,
0.2625,0.0897217,
0.263,0.085144,
0.2635,0.0694275,
0.264,0.0491333,
0.2645,0.0305176,
0.265,0.00869751,
0.2655,-0.00808716,
0.266,-0.0167847,
0.2665,-0.0204468,
0.267,-0.0189209,
0.2675,-0.0180054,
0.268,-0.0170898,
0.2685,-0.0149536,
0.269,-0.012207,
0.2695,-0.01297,
0.27,-0.0141907,
0.2705,-0.0143433,
0.271,-0.0140381,
0.2715,-0.0117493,
0.272,-0.0134277,
0.2725,-0.0215149,
0.273,-0.0317383,
0.2735,-0.03479,
0.274,-0.0227356,
0.2745,-0.0102234,
0.275,-0.00442505,
0.2755,-0.00335693,
0.276,-0.00518799,
0.2765,-0.00869751,
0.277,-0.00961304,
0.2775,-0.00946045,
0.278,-0.0115967,
0.2785,-0.0126648,
0.279,-0.0183105,
0.2795,-0.0233459,
0.28,-0.0236511,
0.2805,-0.0210571,
0.281,-0.0186157,
0.2815,-0.0177002,
0.282,-0.014801,
0.2825,-0.0105286,
0.283,-0.00579834,
0.2835,-0.00274658,
0.284,-0.00350952,
0.2845,-0.00488281,
0.285,-0.00686646,
0.2855,-0.00961304,
0.286,-0.00976563,
0.2865,-0.00991821,
0.287,-0.0151062,
0.2875,-0.0234985,
0.288,-0.0239563,
0.2885,-0.0119019,
0.289,-0.00305176,
0.2895,-0.00427246,
0.29,-0.00762939,
0.2905,-0.0050354,
0.291,0.000762939,
0.2915,0.00900269,
0.292,0.0135803,
0.2925,0.0146484,
0.293,0.0126648,
0.2935,0.0126648,
0.294,0.0138855,
0.2945,0.0114441,
0.295,0.00732422,
0.2955,0.0050354,
0.296,0.00427246,
0.2965,0.0012207,
0.297,-0.00991821,
0.2975,-0.0244141,
0.298,-0.0276184,
0.2985,-0.0212097,
0.299,-0.012207,
0.2995,0.00274658,
0.3,0.0209045,
0.3005,0.0265503,
0.301,0.0245667,
0.3015,0.0262451,
0.302,0.0250244,
0.3025,0.0140381,
0.303,0.00350952,
0.3035,0.00564575,
0.304,0.0100708,
0.3045,0.00793457,
0.305,0.00244141,
0.3055,-0.00183105,
0.306,-0.00305176,
0.3065,-0.00411987,
0.307,-0.00686646,
0.3075,-0.00930786,
0.308,-0.00579834,
0.3085,-0.00274658,
0.309,-0.00320435,
0.3095,-0.00335693,
0.31,-0.00396729,
0.3105,-0.00518799,
0.311,-0.00564575,
0.3115,-0.0062561,
0.312,-0.00640869,
0.3125,-0.0038147,
0.313,-0.0038147,
0.3135,-0.00320435,
0.314,0.00167847,
0.3145,0.00793457,
0.315,0.00869751,
0.3155,0.00579834,
0.316,0.00549316,
0.3165,0.00854492,
0.317,0.0100708,
0.3175,0.0100708,
0.318,0.0114441,
0.3185,0.0108337,
0.319,0.00198364,
0.3195,-0.0115967,
0.32,-0.020752,
0.3205,-0.0234985,
0.321,-0.0238037,
0.3215,-0.0280762,
0.322,-0.0364685,
0.3225,-0.0419617,
0.323,-0.042572,
0.3235,-0.043335,
0.324,-0.045929,
0.3245,-0.0427246,
0.325,-0.0326538,
0.3255,-0.0132751,
0.326,0.00930786,
0.3265,0.0216675,
0.327,0.015564,
0.3275,0.00808716,
0.328,0.01297,
0.3285,0.0228882,
0.329,0.0334167,
0.3295,0.0413513,
0.33,0.0392151,
0.3305,0.0257874,
0.331,0.00961304,
0.3315,-0.00549316,
0.332,-0.0152588,
0.3325,-0.0222778,
0.333,-0.0271606,
0.3335,-0.0283813,
0.334,-0.0274658,
0.3345,-0.0254822,
0.335,-0.0108337,
0.3355,0.0178528,
0.336,0.045929,
0.3365,0.0553894,
0.337,0.043335,
0.3375,0.0291443,
0.338,0.0227356,
0.3385,0.0244141,
0.339,0.0201416,
0.3395,0.00595093,
0.34,-0.0109863,
0.3405,-0.017395,
0.341,-0.0132751,
0.3415,-0.0108337,
0.342,-0.00640869,
0.3425,0.00671387,
0.343,0.0216675,
0.3435,0.0306702,
0.344,0.0306702,
0.3445,0.0218201,
0.345,0.00839233,
0.3455,-0.00167847,
0.346,-0.00900269,
0.3465,-0.0167847,
0.347,-0.0215149,
0.3475,-0.0236511,
0.348,-0.0286865,
0.3485,-0.0393677,
0.349,-0.0527954,
0.3495,-0.062561,
0.35,-0.0674438,
0.3505,-0.0642395,
0.351,-0.0544739,
0.3515,-0.0453186,
0.352,-0.0498962,
0.3525,-0.0810242,
0.353,-0.123138,
0.3535,-0.156403,
0.354,-0.173187,
0.3545,-0.169983,
0.355,-0.155792,
0.3555,-0.135956,
0.356,-0.0932312,
0.3565,-0.00808716,
0.357,0.109253,
0.3575,0.210876,
0.358,0.274048,
0.3585,0.329132,
0.359,0.369568,
0.3595,0.338593,
0.36,0.233459,
0.3605,0.119934,
0.361,0.0643921,
0.3615,0.0776672,
0.362,0.105286,
0.3625,0.0941467,
0.363,0.0526428,
0.3635,0.0151062,
0.364,-0.00106812,
0.3645,0.00106812,
0.365,-0.000915527,
0.3655,-0.0212097,
0.366,-0.0495911,
0.3665,-0.0689697,
0.367,-0.0822449,
0.3675,-0.0941467,
0.368,-0.0996399,
0.3685,-0.0892639,
0.369,-0.0483704,
0.3695,0.00137329,
0.37,0.0216675,
0.3705,0.0144958,
0.371,0.00320435,
0.3715,-0.00671387,
0.372,-0.0138855,
0.3725,-0.0183105,
0.373,-0.0131226,
0.3735,-0.000915527,
0.374,0.0119019,
0.3745,0.0161743,
0.375,0.00732422,
0.3755,-0.0119019,
0.376,-0.0288391,
0.3765,-0.0354004,
0.377,-0.0289917,
0.3775,-0.0244141,
0.378,-0.0358582,
0.3785,-0.0576782,
0.379,-0.0764465,
0.3795,-0.0865173,
0.38,-0.0883484,
0.3805,-0.0939941,
0.381,-0.106964,
0.3815,-0.118866,
0.382,-0.111542,
0.3825,-0.0906372,
0.383,-0.0822449,
0.3835,-0.0883484,
0.384,-0.0798035,
0.3845,-0.0340271,
0.385,0.0248718,
0.3855,0.0476074,
0.386,0.0361633,
0.3865,0.0396729,
0.387,0.0747681,
0.3875,0.111237,
0.388,0.127106,
0.3885,0.128326,
0.389,0.111389,
0.3895,0.0741577,
0.39,0.0389099,
0.3905,0.0172424,
0.391,0.00854492,
0.3915,0.00778198,
0.392,0.00564575,
0.3925,0.000152588,
0.393,-0.00930786,
0.3935,-0.0202942,
0.394,-0.0253296,
0.3945,-0.0224304,
0.395,-0.0119019,
0.3955,-0.00457764,
0.396,-0.00442505,
0.3965,-0.00579834,
0.397,-0.00198364,
0.3975,0.00167847,
0.398,0.000457764,
0.3985,-0.00686646,
0.399,-0.0195313,
0.3995,-0.0354004,
0.4,-0.0408936,
0.4005,-0.0314331,
0.401,-0.0164795,
0.4015,-0.00442505,
0.402,0.00289917,
0.4025,0.0146484,
0.403,0.0323486,
0.4035,0.0447083,
0.404,0.0447083,
0.4045,0.0398254,
0.405,0.0404358,
0.4055,0.040741,
0.406,0.0361633,
0.4065,0.0283813,
0.407,0.0245667,
0.4075,0.0183105,
0.408,-0.00350952,
0.4085,-0.0364685,
0.409,-0.0643921,
0.4095,-0.0782776,
0.41,-0.0787354,
0.4105,-0.067749,
0.411,-0.0570679,
0.4115,-0.0492859,
0.412,-0.0442505,
0.4125,-0.0364685,
0.413,-0.00610352,
0.4135,0.0579834,
0.414,0.133057,
0.4145,0.181427,
0.415,0.178833,
0.4155,0.131989,
0.416,0.0865173,
0.4165,0.0668335,
0.417,0.0549316,
0.4175,0.0398254,
0.418,0.025177,
0.4185,0.0144958,
0.419,0.00549316,
0.4195,-0.00854492,
0.42,-0.0358582,
0.4205,-0.0598145,
0.421,-0.0627136,
0.4215,-0.0489807,
0.422,-0.0305176,
0.4225,-0.0260925,
0.423,-0.0419617,
0.4235,-0.0639343,
0.424,-0.0793457,
0.4245,-0.0819397,
0.425,-0.065918,
0.4255,-0.0227356,
0.426,0.0379944,
0.4265,0.0866699,
0.427,0.10788,
0.4275,0.0996399,
0.428,0.0636292,
0.4285,0.00854492,
0.429,-0.0352478,
0.4295,-0.0546265,
0.43,-0.0613403,
0.4305,-0.0532532,
0.431,-0.0344849,
0.4315,-0.0296021,
0.432,-0.0486755,
0.4325,-0.0842285,
0.433,-0.127563,
0.4335,-0.150452,
0.434,-0.127411,
0.4345,-0.0798035,
0.435,-0.0372314,
0.4355,-0.00991821,
0.436,0.00946045,
0.4365,0.0257874,
0.437,0.059967,
0.4375,0.142059,
0.438,0.262299,
0.4385,0.358429,
0.439,0.365753,
0.4395,0.281982,
0.44,0.173187,
0.4405,0.0947571,
0.441,0.0483704,
0.4415,0.0228882,
0.442,0.00305176,
0.4425,-0.0210571,
0.443,-0.0505066,
0.4435,-0.0712585,
0.444,-0.0720215,
0.4445,-0.06073,
0.445,-0.0454712,
0.4455,-0.0274658,
0.446,-0.0236511,
0.4465,-0.0535583,
0.447,-0.101013,
0.4475,-0.140991,
0.448,-0.161133,
0.4485,-0.165253,
0.449,-0.153046,
0.4495,-0.125275,
0.45,-0.088501,
0.4505,-0.0445557,
0.451,-0.00213623,
0.4515,0.00701904,
0.452,-0.0288391,
0.4525,-0.0741577,
0.453,-0.0924683,
0.4535,-0.0907898,
0.454,-0.0843811,
0.4545,-0.0787354,
0.455,-0.0845337,
0.4555,-0.0920105,
0.456,-0.0860596,
0.4565,-0.0689697,
0.457,-0.0418091,
0.4575,0.00366211,
0.458,0.0570679,
0.4585,0.0930786,
0.459,0.0993347,
0.4595,0.0947571,
0.46,0.0881958,
0.4605,0.071106,
0.461,0.0213623,
0.4615,-0.0515747,
0.462,-0.0944519,
0.4625,-0.101624,
0.463,-0.102997,
0.4635,-0.0973511,
0.464,-0.0817871,
0.4645,-0.0906372,
0.465,-0.122375,
0.4655,-0.127411,
0.466,-0.0810242,
0.4665,-0.0183105,
0.467,0.0294495,
0.4675,0.0679016,
0.468,0.0637817,
0.4685,-0.00930786,
0.469,-0.116425,
0.4695,-0.194702,
0.47,-0.205536,
0.4705,-0.149994,
0.471,-0.0820923,
0.4715,-0.0143433,
0.472,0.0949097,
0.4725,0.22522,
0.473,0.281372,
0.4735,0.234375,
0.474,0.139618,
0.4745,0.0460815,
0.475,-0.0231934,
0.4755,-0.0241089,
0.476,0.0590515,
0.4765,0.135956,
0.477,0.133667,
0.4775,0.113068,
0.478,0.134583,
0.4785,0.166626,
0.479,0.170441,
0.4795,0.13855,
0.48,0.0698853,
0.4805,-0.0125122,
0.481,-0.0744629,
0.4815,-0.0923157,
0.482,-0.0805664,
0.4825,-0.0675964,
0.483,-0.062561,
0.4835,-0.0610352,
0.484,-0.0430298,
0.4845,0.00366211,
0.485,0.0650024,
0.4855,0.107422,
0.486,0.0930786,
0.4865,0.0408936,
0.487,-0.00671387,
0.4875,-0.0352478,
0.488,-0.0471497,
0.4885,-0.06073,
0.489,-0.0854492,
0.4895,-0.10376,
0.49,-0.0946045,
0.4905,-0.0669861,
0.491,-0.0439453,
0.4915,-0.0268555,
0.492,-0.0263977,
0.4925,-0.050354,
0.493,-0.0656128,
0.4935,-0.0624084,
0.494,-0.0378418,
0.4945,0.0218201,
0.495,0.090332,
0.4955,0.0984192,
0.496,0.025177,
0.4965,-0.0588989,
0.497,-0.113678,
0.4975,-0.150452,
0.498,-0.177307,
0.4985,-0.179749,
0.499,-0.157928,
0.4995,-0.138855,
0.5,-0.127869,
0.5005,-0.119324,
0.501,-0.0985718,
0.5015,-0.0476074,
0.502,0.0453186,
0.5025,0.177307,
0.503,0.299988,
0.5035,0.34317,
0.504,0.28244,
0.5045,0.147095,
0.505,-0.00671387,
0.5055,-0.126038,
0.506,-0.1828,
0.5065,-0.19577,
0.507,-0.200806,
0.5075,-0.206299,
0.508,-0.194702,
0.5085,-0.135651,
0.509,0.0227356,
0.5095,0.263214,
0.51,0.444031,
0.5105,0.465698,
0.511,0.379944,
0.5115,0.261383,
0.512,0.15152,
0.5125,0.0772095,
0.513,0.0569153,
0.5135,0.0852966,
0.514,0.13031,
0.5145,0.142975,
0.515,0.0926208,
0.5155,0.015564,
0.516,-0.0382996,
0.5165,-0.0469971,
0.517,-0.0187683,
0.5175,0.00762939,
0.518,0.0213623,
0.5185,0.050354,
0.519,0.0738525,
0.5195,0.052948,
0.52,0.0105286,
0.5205,-0.018158,
0.521,-0.0335693,
0.5215,-0.0396729,
0.522,-0.0410461,
0.5225,-0.0497437,
0.523,-0.0712585,
0.5235,-0.0764465,
0.524,-0.0326538,
0.5245,0.052948,
0.525,0.113373,
0.5255,0.108032,
0.526,0.0585938,
0.5265,-0.00762939,
0.527,-0.0582886,
0.5275,-0.0648499,
0.528,-0.0427246,
0.5285,-0.0453186,
0.529,-0.107269,
0.5295,-0.215454,
0.53,-0.30426,
0.5305,-0.335999,
0.531,-0.343628,
0.5315,-0.35553,
0.532,-0.309448,
0.5325,-0.132294,
0.533,0.107574,
0.5335,0.283356,
0.534,0.350494,
0.5345,0.326233,
0.535,0.261993,
0.5355,0.196991,
0.536,0.121613,
0.5365,0.0392151,
0.537,-0.00137329,
0.5375,0.0236511,
0.538,0.0993347,
0.5385,0.195007,
0.539,0.249634,
0.5395,0.211639,
0.54,0.117645,
0.5405,0.0352478,
0.541,-0.0170898,
0.5415,-0.0512695,
0.542,-0.0765991,
0.5425,-0.0871277,
0.543,-0.0775146,
0.5435,-0.0509644,
0.544,-0.0137329,
0.5445,0.0112915,
0.545,-0.00823975,
0.5455,-0.0715637,
0.546,-0.132294,
0.5465,-0.162811,
0.547,-0.184326,
0.5475,-0.216522,
0.548,-0.253601,
0.5485,-0.254822,
0.549,-0.200195,
0.5495,-0.126495,
0.55,-0.0883484,
0.5505,-0.0968933,
0.551,-0.111694,
0.5515,-0.0640869,
0.552,0.0675964,
0.5525,0.190735,
0.553,0.215759,
0.5535,0.176086,
0.554,0.153198,
0.5545,0.172119,
0.555,0.187073,
0.5555,0.156097,
0.556,0.0927734,
0.5565,0.0453186,
0.557,0.0524902,
0.5575,0.0642395,
0.558,0.0152588,
0.5585,-0.071106,
0.559,-0.133362,
0.5595,-0.144043,
0.56,-0.124207,
0.5605,-0.117035,
0.561,-0.123749,
0.5615,-0.0798035,
0.562,0.0524902,
0.5625,0.183411,
0.563,0.211639,
0.5635,0.158234,
0.564,0.0961304,
0.5645,0.0488281,
0.565,0.00610352,
0.5655,-0.0288391,
0.566,-0.0384521,
0.5665,-0.0262451,
0.567,-0.0192261,
0.5675,-0.0317383,
0.568,-0.0508118,
0.5685,-0.0457764,
0.569,-0.0143433,
0.5695,-0.0166321,
0.57,-0.0784302,
0.5705,-0.163879,
0.571,-0.248871,
0.5715,-0.326996,
0.572,-0.376282,
0.5725,-0.394745,
0.573,-0.381317,
0.5735,-0.292358,
0.574,-0.0848389,
0.5745,0.195007,
0.575,0.428009,
0.5755,0.534973,
0.576,0.55603,
0.5765,0.56778,
0.577,0.558624,
0.5775,0.460358,
0.578,0.274048,
0.5785,0.105438,
0.579,0.0364685,
0.5795,0.0436401,
0.58,0.0627136,
0.5805,0.0679016,
0.581,0.0585938,
0.5815,0.0170898,
0.582,-0.045166,
0.5825,-0.0657654,
0.583,-0.0520325,
0.5835,-0.0614929,
0.584,-0.0996399,
0.5845,-0.14801,
0.585,-0.191498,
0.5855,-0.203552,
0.586,-0.171661,
0.5865,-0.110779,
0.587,-0.0376892,
0.5875,0.0585938,
0.588,0.144501,
0.5885,0.146332,
0.589,0.0895691,
0.5895,0.0660706,
0.59,0.0698853,
0.5905,0.038147,
0.591,-0.0280762,
0.5915,-0.0935364,
0.592,-0.130615,
0.5925,-0.127563,
0.593,-0.117645,
0.5935,-0.134583,
0.594,-0.148926,
0.5945,-0.132446,
0.595,-0.122223,
0.5955,-0.135193,
0.596,-0.148315,
0.5965,-0.13855,
0.597,-0.124817,
0.5975,-0.137787,
0.598,-0.175323,
0.5985,-0.198212,
0.599,-0.186768,
0.5995,-0.158386,
0.6,-0.140686,
0.6005,-0.151367,
0.601,-0.172119,
0.6015,-0.180054,
0.602,-0.165405,
0.6025,-0.133972,
0.603,-0.117493,
0.6035,-0.140381,
0.604,-0.193329,
0.6045,-0.171356,
0.605,-0.0157166,
0.6055,0.158997,
0.606,0.230255,
0.6065,0.216522,
0.607,0.18219,
0.6075,0.137634,
0.608,0.0952148,
0.6085,0.0675964,
0.609,0.0442505,
0.6095,0.000762939,
0.61,-0.0679016,
0.6105,-0.150299,
0.611,-0.212708,
0.6115,-0.25116,
0.612,-0.274658,
0.6125,-0.250702,
0.613,-0.118866,
0.6135,0.126495,
0.614,0.376129,
0.6145,0.479736,
0.615,0.406036,
0.6155,0.261993,
0.616,0.137939,
0.6165,0.0674438,
0.617,0.0523376,
0.6175,0.0489807,
0.618,0.0146484,
0.6185,-0.0590515,
0.619,-0.1474,
0.6195,-0.217133,
0.62,-0.240936,
0.6205,-0.230255,
0.621,-0.21759,
0.6215,-0.205688,
0.622,-0.182343,
0.6225,-0.124664,
0.623,0.00473022,
0.6235,0.13916,
0.624,0.163422,
0.6245,0.0769043,
0.625,-0.0285339,
0.6255,-0.100098,
0.626,-0.118561,
0.6265,-0.0796509,
0.627,-0.00259399,
0.6275,0.125732,
0.628,0.289764,
0.6285,0.383453,
0.629,0.358429,
0.6295,0.284119,
0.63,0.214233,
0.6305,0.14328,
0.631,0.0640869,
0.6315,0.014801,
0.632,0.0167847,
0.6325,0.0312805,
0.633,0.0285339,
0.6335,0.0146484,
0.634,-0.0128174,
0.6345,-0.0328064,
0.635,-0.0518799,
0.6355,-0.0961304,
0.636,-0.145721,
0.6365,-0.158844,
0.637,-0.118103,
0.6375,-0.0614929,
0.638,-0.0410461,
0.6385,-0.0534058,
0.639,-0.0773621,
0.6395,-0.0976563,
0.64,-0.0772095,
0.6405,0.0233459,
0.641,0.175171,
0.6415,0.273438,
0.642,0.263214,
0.6425,0.195618,
0.643,0.109406,
0.6435,0.00671387,
0.644,-0.0953674,
0.6445,-0.155792,
0.645,-0.158691,
0.6455,-0.138092,
0.646,-0.137482,
0.6465,-0.145874,
0.647,-0.119171,
0.6475,-0.0538635,
0.648,0.0421143,
0.6485,0.189819,
0.649,0.33371,
0.6495,0.380096,
0.65,0.338593,
0.6505,0.262909,
0.651,0.192719,
0.6515,0.149536,
0.652,0.114288,
0.6525,0.0778198,
0.653,0.0524902,
0.6535,0.0410461,
0.654,0.0422668,
0.6545,0.0299072,
0.655,-0.0209045,
0.6555,-0.0823975,
0.656,-0.103607,
0.6565,-0.0785828,
0.657,-0.0665283,
0.6575,-0.0970459,
0.658,-0.105743,
0.6585,-0.0364685,
0.659,0.045166,
0.6595,0.0575256,
0.66,0.0128174,
0.6605,-0.0334167,
0.661,-0.0578308,
0.6615,-0.068512,
0.662,-0.0787354,
0.6625,-0.0801086,
0.663,-0.050354,
0.6635,0.0100708,
0.664,0.0700378,
0.6645,0.108643,
0.665,0.0898743,
0.6655,0.0119019,
0.666,-0.0616455,
0.6665,-0.0839233,
0.667,-0.0737,
0.6675,-0.0611877,
0.668,-0.057373,
0.6685,-0.0741577,
0.669,-0.101776,
0.6695,-0.117188,
0.67,-0.111847,
0.6705,-0.0891113,
0.671,-0.04776,
0.6715,0.0038147,
0.672,0.0263977,
0.6725,0.00350952,
0.673,-0.0227356,
0.6735,0.00457764,
0.674,0.078125,
0.6745,0.135803,
0.675,0.124207,
0.6755,0.0392151,
0.676,-0.065918,
0.6765,-0.0933838,
0.677,-0.0401306,
0.6775,-0.0114441,
0.678,-0.030365,
0.6785,-0.0466919,
0.679,-0.0305176,
0.6795,0.00259399,
0.68,0.0152588,
0.6805,0.00610352,
0.681,-0.00732422,
0.6815,-0.0202942,
0.682,-0.0152588,
0.6825,0.0160217,
0.683,0.0271606,
0.6835,0.000152588,
0.684,-0.0296021,
0.6845,-0.0271606,
0.685,-0.00411987,
0.6855,-0.00793457,
0.686,-0.0631714,
0.6865,-0.125732,
0.687,-0.161743,
0.6875,-0.167999,
0.688,-0.167847,
0.6885,-0.166931,
0.689,-0.139771,
0.6895,-0.0753784,
0.69,-0.0302124,
0.6905,-0.058136,
0.691,-0.145264,
0.6915,-0.229187,
0.692,-0.250244,
0.6925,-0.200806,
0.693,-0.133209,
0.6935,-0.0750732,
0.694,0.0460815,
0.6945,0.281372,
0.695,0.507965,
0.6955,0.584412,
0.696,0.530701,
0.6965,0.414124,
0.697,0.25589,
0.6975,0.0915527,
0.698,-0.0337219,
0.6985,-0.0959778,
0.699,-0.12558,
0.6995,-0.158691,
0.7,-0.180206,
0.7005,-0.170593,
0.701,-0.14328,
0.7015,-0.13855,
0.702,-0.164337,
0.7025,-0.176849,
0.703,-0.146484,
0.7035,-0.0627136,
0.704,0.0254822,
0.7045,0.0718689,
0.705,0.122986,
0.7055,0.164642,
0.706,0.118713,
0.7065,0.00213623,
0.707,-0.0883484,
0.7075,-0.0950623,
0.708,-0.0527954,
0.7085,-0.00961304,
0.709,0.00701904,
0.7095,-0.0369263,
0.71,-0.105286,
0.7105,-0.117645,
0.711,-0.0726318,
0.7115,-0.0469971,
0.712,-0.0674438,
0.7125,-0.0909424,
0.713,-0.0915527,
0.7135,-0.098877,
0.714,-0.102844,
0.7145,-0.0691223,
0.715,-0.019989,
0.7155,0.0215149,
0.716,0.0662231,
0.7165,0.111542,
0.717,0.144806,
0.7175,0.154266,
0.718,0.138702,
0.7185,0.111389,
0.719,0.0794983,
0.7195,0.0679016,
0.72,0.0801086,
0.7205,0.0767517,
0.721,0.0405884,
0.7215,-0.0012207,
0.722,-0.0314331,
0.7225,-0.0506592,
0.723,-0.0604248,
0.7235,-0.0656128,
0.724,-0.0878906,
0.7245,-0.134888,
0.725,-0.177307,
0.7255,-0.195313,
0.726,-0.203705,
0.7265,-0.214081,
0.727,-0.20813,
0.7275,-0.142975,
0.728,-0.0146484,
0.7285,0.127716,
0.729,0.227203,
0.7295,0.285034,
0.73,0.305939,
0.7305,0.240326,
0.731,0.111389,
0.7315,0.0120544,
0.732,-0.0289917,
0.7325,-0.0480652,
0.733,-0.0572205,
0.7335,-0.032196,
0.734,0.0338745,
0.7345,0.110168,
0.735,0.153198,
0.7355,0.139771,
0.736,0.0846863,
0.7365,0.0268555,
0.737,-0.0187683,
0.7375,-0.0611877,
0.738,-0.0942993,
0.7385,-0.110626,
0.739,-0.0918579,
0.7395,-0.0553894,
0.74,-0.0437927,
0.7405,-0.0456238,
0.741,-0.00137329,
0.7415,0.0904846,
0.742,0.172272,
0.7425,0.198517,
0.743,0.156555,
0.7435,0.0822449,
0.744,0.0254822,
0.7445,0.0256348,
0.745,0.0724792,
0.7455,0.0987244,
0.746,0.0712585,
0.7465,0.0230408,
0.747,-0.0137329,
0.7475,-0.0335693,
0.748,-0.0349426,
0.7485,-0.0166321,
0.749,0.00701904,
0.7495,0.0228882,
0.75,0.0187683,
0.7505,-0.0167847,
0.751,-0.0648499,
0.7515,-0.0898743,
0.752,-0.10437,
0.7525,-0.129089,
0.753,-0.161285,
0.7535,-0.182495,
0.754,-0.157166,
0.7545,-0.0793457,
0.755,-0.0152588,
0.7555,-0.032959,
0.756,-0.0657654,
0.7565,-0.0062561,
0.757,0.12558,
0.7575,0.222931,
0.758,0.231781,
0.7585,0.191345,
0.759,0.158997,
0.7595,0.118256,
0.76,0.055542,
0.7605,-0.00183105,
0.761,-0.0462341,
0.7615,-0.0860596,
0.762,-0.138702,
0.7625,-0.198364,
0.763,-0.244446,
0.7635,-0.264282,
0.764,-0.265656,
0.7645,-0.249786,
0.765,-0.198059,
0.7655,-0.11322,
0.766,-0.022583,
0.7665,0.0700378,
0.767,0.18631,
0.7675,0.297241,
0.768,0.342407,
0.7685,0.34256,
0.769,0.358887,
0.7695,0.350037,
0.77,0.278625,
0.7705,0.192871,
0.771,0.124969,
0.7715,0.0665283,
0.772,0.00854492,
0.7725,-0.0491333,
0.773,-0.088501,
0.7735,-0.104065,
0.774,-0.122681,
0.7745,-0.160675,
0.775,-0.194092,
0.7755,-0.187988,
0.776,-0.146027,
0.7765,-0.110474,
0.777,-0.0897217,
0.7775,-0.0804138,
0.778,-0.0726318,
0.7785,-0.0257874,
0.779,0.0578308,
0.7795,0.113831,
0.78,0.108032,
0.7805,0.0701904,
0.781,0.0270081,
0.7815,-0.0183105,
0.782,-0.0547791,
0.7825,-0.0695801,
0.783,-0.0680542,
0.7835,-0.070343,
0.784,-0.0827026,
0.7845,-0.0875854,
0.785,-0.0758362,
0.7855,-0.0653076,
0.786,-0.0694275,
0.7865,-0.0866699,
0.787,-0.0964355,
0.7875,-0.0790405,
0.788,-0.0544739,
0.7885,-0.0466919,
0.789,-0.0361633,
0.7895,-0.000305176,
0.79,0.0349426,
0.7905,0.0216675,
0.791,-0.0341797,
0.7915,-0.0727844,
0.792,-0.0500488,
0.7925,0.00518799,
0.793,0.0288391,
0.7935,0.0306702,
0.794,0.0698853,
0.7945,0.138245,
0.795,0.147858,
0.7955,0.072937,
0.796,-0.00930786,
0.7965,-0.0559998,
0.797,-0.0862122,
0.7975,-0.120697,
0.798,-0.131378,
0.7985,-0.098877,
0.799,-0.0559998,
0.7995,-0.0183105,
0.8,0.0434875,
0.8005,0.11261,
0.801,0.166016,
0.8015,0.201874,
0.802,0.209045,
0.8025,0.17807,
0.803,0.108185,
0.8035,0.0408936,
0.804,0.0421143,
0.8045,0.106201,
0.805,0.162964,
0.8055,0.15686,
0.806,0.109863,
0.8065,0.0741577,
0.807,0.0479126,
0.8075,0.0219727,
0.808,0.000457764,
0.8085,-0.0253296,
0.809,-0.0650024,
0.8095,-0.126038,
0.81,-0.185394,
0.8105,-0.226898,
0.811,-0.272827,
0.8115,-0.301514,
0.812,-0.272827,
0.8125,-0.222931,
0.813,-0.201874,
0.8135,-0.168915,
0.814,-0.0245667,
0.8145,0.202942,
0.815,0.359039,
0.8155,0.347595,
0.816,0.228271,
0.8165,0.136414,
0.817,0.128632,
0.8175,0.110931,
0.818,0.0115967,
0.8185,-0.0776672,
0.819,-0.0518799,
0.8195,0.0508118,
0.82,0.13443,
0.8205,0.170135,
0.821,0.197144,
0.8215,0.221252,
0.822,0.22049,
0.8225,0.173645,
0.823,0.0915527,
0.8235,0.00610352,
0.824,-0.0735474,
0.8245,-0.135345,
0.825,-0.167999,
0.8255,-0.176086,
0.826,-0.179443,
0.8265,-0.182037,
0.827,-0.15564,
0.8275,-0.106354,
0.828,-0.0456238,
0.8285,0.0222778,
0.829,0.0820923,
0.8295,0.140381,
0.83,0.209045,
0.8305,0.256042,
0.831,0.236206,
0.8315,0.162964,
0.832,0.0872803,
0.8325,0.018158,
0.833,-0.0488281,
0.8335,-0.0906372,
0.834,-0.098114,
0.8345,-0.0872803,
0.835,-0.0909424,
0.8355,-0.128479,
0.836,-0.171967,
0.8365,-0.210266,
0.837,-0.243378,
0.8375,-0.25238,
0.838,-0.220795,
0.8385,-0.149994,
0.839,-0.0559998,
0.8395,0.0434875,
0.84,0.147095,
0.8405,0.225983,
0.841,0.227051,
0.8415,0.166016,
0.842,0.108032,
0.8425,0.085144,
0.843,0.0860596,
0.8435,0.0697327,
0.844,0.0196838,
0.8445,-0.0317383,
0.845,-0.0524902,
0.8455,-0.0524902,
0.846,-0.0558472,
0.8465,-0.0679016,
0.847,-0.0820923,
0.8475,-0.0878906,
0.848,-0.0787354,
0.8485,-0.0556946,
0.849,-0.0233459,
0.8495,0.000762939,
0.85,-0.0102234,
0.8505,-0.0532532,
0.851,-0.088501,
0.8515,-0.088501,
0.852,-0.0619507,
0.8525,-0.0177002,
0.853,0.0299072,
0.8535,0.0325012,
0.854,-0.0120544,
0.8545,-0.0454712,
0.855,-0.0282288,
0.8555,0.0137329,
0.856,0.0361633,
0.8565,0.0183105,
0.857,-0.0218201,
0.8575,-0.0323486,
0.858,-0.0126648,
0.8585,-0.0141907,
0.859,-0.06073,
0.8595,-0.121155,
0.86,-0.171967,
0.8605,-0.219116,
0.861,-0.236053,
0.8615,-0.204773,
0.862,-0.140076,
0.8625,-0.0344849,
0.863,0.121613,
0.8635,0.25116,
0.864,0.262451,
0.8645,0.189362,
0.865,0.118408,
0.8655,0.0701904,
0.866,0.0341797,
0.8665,0.00991821,
0.867,0.0050354,
0.8675,0.0160217,
0.868,0.0436401,
0.8685,0.0888062,
0.869,0.123291,
0.8695,0.0994873,
0.87,0.0314331,
0.8705,-0.0163269,
0.871,-0.0189209,
0.8715,-0.0088501,
0.872,0.00656128,
0.8725,0.0436401,
0.873,0.0650024,
0.8735,0.0418091,
0.874,-0.0102234,
0.8745,-0.0784302,
0.875,-0.15686,
0.8755,-0.226746,
0.876,-0.268097,
0.8765,-0.240173,
0.877,-0.124054,
0.8775,0.00518799,
0.878,0.0608826,
0.8785,0.0665283,
0.879,0.0993347,
0.8795,0.149841,
0.88,0.14267,
0.8805,0.0587463,
0.881,-0.0260925,
0.8815,-0.0654602,
0.882,-0.0541687,
0.8825,0.000610352,
0.883,0.0428772,
0.8835,0.0376892,
0.884,0.0135803,
0.8845,0.00869751,
0.885,0.0312805,
0.8855,0.0682068,
0.886,0.107269,
0.8865,0.126495,
0.887,0.110321,
0.8875,0.0788879,
0.888,0.0627136,
0.8885,0.0691223,
0.889,0.0694275,
0.8895,0.030365,
0.89,-0.0363159,
0.8905,-0.0857544,
0.891,-0.0978088,
0.8915,-0.0819397,
0.892,-0.0521851,
0.8925,-0.0285339,
0.893,-0.0215149,
0.8935,-0.0352478,
0.894,-0.0663757,
0.8945,-0.0968933,
0.895,-0.0892639,
0.8955,-0.055542,
0.896,-0.0468445,
0.8965,-0.0830078,
0.897,-0.134735,
0.8975,-0.158386,
0.898,-0.131531,
0.8985,-0.0756836,
0.899,-0.037384,
0.8995,-0.0398254,
0.9,-0.0526428,
0.9005,-0.0286865,
0.901,-0.00106812,
0.9015,-0.0326538,
0.902,-0.0839233,
0.9025,-0.0762939,
0.903,-0.00488281,
0.9035,0.091095,
0.904,0.200348,
0.9045,0.266876,
0.905,0.225372,
0.9055,0.16098,
0.906,0.173035,
0.9065,0.183105,
0.907,0.135803,
0.9075,0.119934,
0.908,0.145264,
0.9085,0.137939,
0.909,0.111084,
0.9095,0.13916,
0.91,0.196991,
0.9105,0.20401,
0.911,0.150146,
0.9115,0.0898743,
0.912,0.0488281,
0.9125,0.0187683,
0.913,0,
0.9135,0.00778198,
0.914,0.035553,
0.9145,0.0430298,
0.915,0.00595093,
0.9155,-0.058136,
0.916,-0.119324,
0.9165,-0.174408,
0.917,-0.233917,
0.9175,-0.29541,
0.918,-0.324097,
0.9185,-0.314789,
0.919,-0.263672,
0.9195,-0.152893,
0.92,-0.0111389,
0.9205,0.0857544,
0.921,0.0961304,
0.9215,0.0708008,
0.922,0.0543213,
0.9225,0.0448608,
0.923,0.0390625,
0.9235,0.0587463,
0.924,0.0973511,
0.9245,0.10849,
0.925,0.059967,
0.9255,-0.0184631,
0.926,-0.0750732,
0.9265,-0.102234,
0.927,-0.106964,
0.9275,-0.0964355,
0.928,-0.0968933,
0.9285,-0.104065,
0.929,-0.0926208,
0.9295,-0.0689697,
0.93,-0.0665283,
0.9305,-0.0846863,
0.931,-0.0991821,
0.9315,-0.104828,
0.932,-0.0976563,
0.9325,-0.0770569,
0.933,-0.0598145,
0.9335,-0.0535583,
0.934,-0.0524902,
0.9345,-0.0492859,
0.935,-0.0418091,
0.9355,-0.0476074,
0.936,-0.0595093,
0.9365,-0.0675964,
0.937,-0.0726318,
0.9375,-0.0787354,
0.938,-0.0822449,
0.9385,-0.0788879,
0.939,-0.0553894,
0.9395,-0.00198364,
0.94,0.0337219,
0.9405,-0.00854492,
0.941,-0.0944519,
0.9415,-0.149994,
0.942,-0.169983,
0.9425,-0.161743,
0.943,-0.111237,
0.9435,-0.030365,
0.944,0.0506592,
0.9445,0.114594,
0.945,0.150146,
0.9455,0.146179,
0.946,0.12207,
0.9465,0.0967407,
0.947,0.072937,
0.9475,0.0402832,
0.948,0.00396729,
0.9485,0.0187683,
0.949,0.0917053,
0.9495,0.132904,
0.95,0.109711,
0.9505,0.0727844,
0.951,0.0439453,
0.9515,0.0210571,
0.952,0.0126648,
0.9525,0.01297,
0.953,0.010376,
0.9535,0.0210571,
0.954,0.0386047,
0.9545,0.0431824,
0.955,0.0473022,
0.9555,0.0473022,
0.956,0.0349426,
0.9565,0.0341797,
0.957,0.0679016,
0.9575,0.134277,
0.958,0.188446,
0.9585,0.166931,
0.959,0.0816345,
0.9595,0.00595093,
0.96,-0.0318909,
0.9605,-0.0447083,
0.961,-0.0515747,
0.9615,-0.0700378,
0.962,-0.103912,
0.9625,-0.131531,
0.963,-0.106354,
0.9635,-0.0268555,
0.964,0.0309753,
0.9645,0.014801,
0.965,-0.014801,
0.9655,0.0202942,
0.966,0.0869751,
0.9665,0.100708,
0.967,0.0584412,
0.9675,0.0135803,
0.968,-0.00473022,
0.9685,-0.00198364,
0.969,-0.0102234,
0.9695,-0.0428772,
0.97,-0.0613403,
0.9705,-0.0622559,
0.971,-0.0778198,
0.9715,-0.0959778,
0.972,-0.0776672,
0.9725,-0.0160217,
0.973,0.0540161,
0.9735,0.0762939,
0.974,0.0401306,
0.9745,-0.0170898,
0.975,-0.0798035,
0.9755,-0.125885,
0.976,-0.147095,
0.9765,-0.171509,
0.977,-0.193787,
0.9775,-0.146484,
0.978,-0.0289917,
0.9785,0.075531,
0.979,0.145264,
0.9795,0.200195,
0.98,0.221405,
0.9805,0.180664,
0.981,0.0842285,
0.9815,-0.0138855,
0.982,-0.075531,
0.9825,-0.1297,
0.983,-0.196686,
0.9835,-0.24765,
0.984,-0.26474,
0.9845,-0.239258,
0.985,-0.162506,
0.9855,-0.0445557,
0.986,0.0811768,
0.9865,0.193787,
0.987,0.301819,
0.9875,0.398254,
0.988,0.447845,
0.9885,0.414734,
0.989,0.293427,
0.9895,0.141602,
0.99,0.0398254,
0.9905,0.0178528,
0.991,0.052948,
0.9915,0.0862122,
0.992,0.0752258,
0.9925,0.039978,
0.993,0.0210571,
0.9935,0.0172424,
0.994,-0.00778198,
0.9945,-0.0517273,
0.995,-0.0891113,
0.9955,-0.10498,
0.996,-0.10025,
0.9965,-0.103455,
0.997,-0.136108,
0.9975,-0.165558,
0.998,-0.158234,
0.9985,-0.135193,
0.999,-0.110168,
0.9995,-0.0480652,
1,0.0189209,
1.0005,0.00518799,
1.001,-0.0704956,
1.0015,-0.151062,
1.002,-0.216064,
1.0025,-0.257416,
1.003,-0.272217,
1.0035,-0.266876,
1.004,-0.248718,
1.0045,-0.191345,
1.005,-0.068512,
1.0055,0.0952148,
1.006,0.25238,
1.0065,0.344391,
1.007,0.346375,
1.0075,0.287476,
1.008,0.218353,
1.0085,0.148926,
1.009,0.0735474,
1.0095,0.00976563,
1.01,-0.0334167,
1.0105,-0.0694275,
1.011,-0.0956726,
1.0115,-0.106049,
1.012,-0.102692,
1.0125,-0.0704956,
1.013,-0.0177002,
1.0135,0.0259399,
1.014,0.0476074,
1.0145,0.0660706,
1.015,0.0814819,
1.0155,0.087738,
1.016,0.100555,
1.0165,0.10788,
1.017,0.0817871,
1.0175,0.0471497,
1.018,0.0363159,
1.0185,0.030365,
1.019,0.0311279,
1.0195,0.0352478,
1.02,0.0360107,
1.0205,0.0274658,
1.021,-0.00167847,
1.0215,-0.0315857,
1.022,-0.0422668,
1.0225,-0.057373,
1.023,-0.0909424,
1.0235,-0.124359,
1.024,-0.144653,
1.0245,-0.155487,
1.025,-0.167084,
1.0255,-0.193634,
1.026,-0.22995,
1.0265,-0.245056,
1.027,-0.22522,
1.0275,-0.189514,
1.028,-0.12558,
1.0285,-0.0131226,
1.029,0.12207,
1.0295,0.226288,
1.03,0.240479,
1.0305,0.179138,
1.031,0.108948,
1.0315,0.0773621,
1.032,0.102539,
1.0325,0.141754,
1.033,0.118103,
1.0335,0.0268555,
1.034,-0.0767517,
1.0345,-0.140533,
1.035,-0.148163,
1.0355,-0.132904,
1.036,-0.13092,
1.0365,-0.0798035,
1.037,0.0514221,
1.0375,0.156555,
1.038,0.166168,
1.0385,0.123749,
1.039,0.070343,
1.0395,0.03479,
1.04,0.020752,
1.0405,0.00427246,
1.041,-0.0294495,
1.0415,-0.057373,
1.042,-0.058136,
1.0425,-0.0387573,
1.043,-0.0198364,
1.0435,-0.0119019,
1.044,-0.0134277,
1.0445,-0.01297,
1.045,0.000610352,
1.0455,0.0195313,
1.046,0.032959,
1.0465,0.0332642,
1.047,0.00640869,
1.0475,-0.030365,
1.048,-0.039978,
1.0485,-0.0262451,
1.049,-0.0282288,
1.0495,-0.0743103,
1.05,-0.1474,
1.0505,-0.214996,
1.051,-0.257874,
1.0515,-0.266571,
1.052,-0.239868,
1.0525,-0.174255,
1.053,-0.0672913,
1.0535,0.0648499,
1.054,0.174408,
1.0545,0.221405,
1.055,0.218811,
1.0555,0.203247,
1.056,0.171204,
1.0565,0.108643,
1.057,0.0296021,
1.0575,-0.0375366,
1.058,-0.0639343,
1.0585,-0.0390625,
1.059,0.00808716,
1.0595,0.0224304,
1.06,-0.00259399,
1.0605,-0.00961304,
1.061,0.0382996,
1.0615,0.112305,
1.062,0.16861,
1.0625,0.185547,
1.063,0.152283,
1.0635,0.0842285,
1.064,0.0157166,
1.0645,-0.0256348,
1.065,-0.0360107,
1.0655,-0.0360107,
1.066,-0.0401306,
1.0665,-0.0474548,
1.067,-0.0588989,
1.0675,-0.0791931,
1.068,-0.124054,
1.0685,-0.201569,
1.069,-0.289459,
1.0695,-0.331573,
1.07,-0.297089,
1.0705,-0.206451,
1.071,-0.102539,
1.0715,-0.0328064,
1.072,0.0265503,
1.0725,0.136566,
1.073,0.256348,
1.0735,0.29892,
1.074,0.274811,
1.0745,0.254669,
1.075,0.238647,
1.0755,0.169067,
1.076,0.0624084,
1.0765,0.00930786,
1.077,0.0450134,
1.0775,0.118713,
1.078,0.159912,
1.0785,0.146942,
1.079,0.0888062,
1.0795,0.0270081,
1.08,0.00488281,
1.0805,0.00289917,
1.081,-0.0102234,
1.0815,-0.0253296,
1.082,-0.0283813,
1.0825,-0.0224304,
1.083,-0.0204468,
1.0835,-0.0238037,
1.084,-0.0263977,
1.0845,-0.0238037,
1.085,-0.030365,
1.0855,-0.0552368,
1.086,-0.0679016,
1.0865,-0.0570679,
1.087,-0.0556946,
1.0875,-0.072937,
1.088,-0.0895691,
1.0885,-0.090332,
1.089,-0.0737,
1.0895,-0.0541687,
1.09,-0.0518799,
1.0905,-0.0784302,
1.091,-0.0831604,
1.0915,-0.00686646,
1.092,0.09552,
1.0925,0.126648,
1.093,0.0958252,
1.0935,0.067749,
1.094,0.0431824,
1.0945,0.00747681,
1.095,-0.0125122,
1.0955,-0.00152588,
1.096,0.0259399,
1.0965,0.0531006,
1.097,0.0563049,
1.0975,0.0283813,
1.098,-0.0172424,
1.0985,-0.0688171,
1.099,-0.0793457,
1.0995,-0.0111389,
1.1,0.0720215,
1.1005,0.106506,
1.101,0.105743,
1.1015,0.0764465,
1.102,0.00839233,
1.1025,-0.0579834,
1.103,-0.0811768,
1.1035,-0.0933838,
1.104,-0.129852,
1.1045,-0.164185,
1.105,-0.169983,
1.1055,-0.160217,
1.106,-0.153351,
1.1065,-0.139771,
1.107,-0.091095,
1.1075,-0.00732422,
1.108,0.0749207,
1.1085,0.115204,
1.109,0.101166,
1.1095,0.0778198,
1.11,0.0750732,
1.1105,0.0767517,
1.111,0.0946045,
1.1115,0.144806,
1.112,0.164185,
1.1125,0.112915,
1.113,0.0363159,
1.1135,-0.00656128,
1.114,-0.0131226,
1.1145,-0.0158691,
1.115,-0.0375366,
1.1155,-0.0894165,
1.116,-0.15274,
1.1165,-0.187073,
1.117,-0.177307,
1.1175,-0.149384,
1.118,-0.137939,
1.1185,-0.137939,
1.119,-0.132751,
1.1195,-0.100403,
1.12,-0.00854492,
1.1205,0.117798,
1.121,0.198364,
1.1215,0.218201,
1.122,0.217438,
1.1225,0.214539,
1.123,0.195465,
1.1235,0.138855,
1.124,0.0692749,
1.1245,0.0302124,
1.125,0.0219727,
1.1255,0.0187683,
1.126,0.0062561,
1.1265,-0.0105286,
1.127,-0.0267029,
1.1275,-0.0474548,
1.128,-0.067749,
1.1285,-0.0738525,
1.129,-0.0675964,
1.1295,-0.0628662,
1.13,-0.0628662,
1.1305,-0.0614929,
1.131,-0.0592041,
1.1315,-0.0517273,
1.132,-0.045166,
1.1325,-0.0585938,
1.133,-0.0941467,
1.1335,-0.111542,
1.134,-0.0776672,
1.1345,-0.0115967,
1.135,0.0616455,
1.1355,0.129089,
1.136,0.168304,
1.1365,0.198364,
1.137,0.257721,
1.1375,0.316467,
1.138,0.296326,
1.1385,0.189972,
1.139,0.071106,
1.1395,-0.00762939,
1.14,-0.0466919,
1.1405,-0.0700378,
1.141,-0.0982666,
1.1415,-0.120392,
1.142,-0.120239,
1.1425,-0.108185,
1.143,-0.100098,
1.1435,-0.0949097,
1.144,-0.0819397,
1.1445,-0.0820923,
1.145,-0.0999451,
1.1455,-0.102234,
1.146,-0.0790405,
1.1465,-0.0624084,
1.147,-0.0721741,
1.1475,-0.0872803,
1.148,-0.10437,
1.1485,-0.148468,
1.149,-0.202484,
1.1495,-0.229187,
1.15,-0.218964,
1.1505,-0.167542,
1.151,-0.0869751,
1.1515,-0.0119019,
1.152,0.0497437,
1.1525,0.132599,
1.153,0.210419,
1.1535,0.236053,
1.154,0.207825,
1.1545,0.15564,
1.155,0.102539,
1.1555,0.0418091,
1.156,-0.00228882,
1.1565,0.00259399,
1.157,0.0323486,
1.1575,0.0515747,
1.158,0.0520325,
1.1585,0.0297546,
1.159,-0.00671387,
1.1595,-0.0202942,
1.16,0.00549316,
1.1605,0.045929,
1.161,0.091095,
1.1615,0.131531,
1.162,0.127411,
1.1625,0.0856018,
1.163,0.0563049,
1.1635,0.040741,
1.164,0.020752,
1.1645,0.00259399,
1.165,0.000152588,
1.1655,0.00900269,
1.166,0.00732422,
1.1665,-0.0140381,
1.167,-0.0375366,
1.1675,-0.0517273,
1.168,-0.0559998,
1.1685,-0.0512695,
1.169,-0.0495911,
1.1695,-0.0689697,
1.17,-0.102539,
1.1705,-0.106354,
1.171,-0.0752258,
1.1715,-0.0575256,
1.172,-0.0730896,
1.1725,-0.088501,
1.173,-0.0975037,
1.1735,-0.101471,
1.174,-0.055542,
1.1745,0.0453186,
1.175,0.138702,
1.1755,0.172577,
1.176,0.160828,
1.1765,0.122223,
1.177,0.0634766,
1.1775,0.0038147,
1.178,-0.055542,
1.1785,-0.120239,
1.179,-0.162964,
1.1795,-0.137939,
1.18,-0.0679016,
1.1805,-0.0169373,
1.181,-0.00335693,
1.1815,-0.0114441,
1.182,-0.0262451,
1.1825,-0.0323486,
1.183,-0.0335693,
1.1835,-0.0453186,
1.184,-0.0527954,
1.1845,-0.0378418,
1.185,-0.0312805,
1.1855,-0.0627136,
1.186,-0.109558,
1.1865,-0.138397,
1.187,-0.1091,
1.1875,-0.0299072,
1.188,0.0401306,
1.1885,0.0990295,
1.189,0.139923,
1.1895,0.117798,
1.19,0.0483704,
1.1905,-0.00396729,
1.191,-0.0340271,
1.1915,-0.0531006,
1.192,-0.0769043,
1.1925,-0.109863,
1.193,-0.127716,
1.1935,-0.104828,
1.194,-0.0419617,
1.1945,0.0279236,
1.195,0.0683594,
1.1955,0.0865173,
1.196,0.0939941,
1.1965,0.0912476,
1.197,0.0976563,
1.1975,0.113373,
1.198,0.100555,
1.1985,0.0469971,
1.199,-0.0112915,
1.1995,-0.0466919,
1.2,-0.0621033,
1.2005,-0.0498962,
1.201,0.00259399,
1.2015,0.0695801,
1.202,0.10437,
1.2025,0.0927734,
1.203,0.0767517,
1.2035,0.0938416,
1.204,0.108185,
1.2045,0.102081,
1.205,0.0888062,
1.2055,0.0756836,
1.206,0.0669861,
1.2065,0.0814819,
1.207,0.108337,
1.2075,0.108185,
1.208,0.0662231,
1.2085,0.00320435,
1.209,-0.0582886,
1.2095,-0.113678,
1.21,-0.15976,
1.2105,-0.17334,
1.211,-0.144348,
1.2115,-0.105133,
1.212,-0.0773621,
1.2125,-0.0592041,
1.213,-0.0312805,
1.2135,0.0335693,
1.214,0.111847,
1.2145,0.143738,
1.215,0.142365,
1.2155,0.116425,
1.216,0.0474548,
1.2165,-0.0216675,
1.217,-0.0505066,
1.2175,-0.0653076,
1.218,-0.0846863,
1.2185,-0.0866699,
1.219,-0.0778198,
1.2195,-0.0819397,
1.22,-0.100555,
1.2205,-0.114441,
1.221,-0.113373,
1.2215,-0.098114,
1.222,-0.0808716,
1.2225,-0.0666809,
1.223,-0.0559998,
1.2235,-0.0517273,
1.224,-0.0515747,
1.2245,-0.045929,
1.225,-0.0210571,
1.2255,0.0158691,
1.226,0.0547791,
1.2265,0.090332,
1.227,0.112,
1.2275,0.11795,
1.228,0.122528,
1.2285,0.136414,
1.229,0.15274,
1.2295,0.148163,
1.23,0.106506,
1.2305,0.0346375,
1.231,-0.0364685,
1.2315,-0.0830078,
1.232,-0.103455,
1.2325,-0.0808716,
1.233,-0.0346375,
1.2335,-0.0314331,
1.234,-0.0387573,
1.2345,0.0125122,
1.235,0.124664,
1.2355,0.234222,
1.236,0.263214,
1.2365,0.209045,
1.237,0.125122,
1.2375,0.0572205,
1.238,0.0164795,
1.2385,-0.0126648,
1.239,-0.0393677,
1.2395,-0.0642395,
1.24,-0.0669861,
1.2405,-0.0386047,
1.241,0.00869751,
1.2415,0.0463867,
1.242,0.0444031,
1.2425,0.00900269,
1.243,-0.0248718,
1.2435,-0.0527954,
1.244,-0.0820923,
1.2445,-0.10498,
1.245,-0.125885,
1.2455,-0.158691,
1.246,-0.195923,
1.2465,-0.208893,
1.247,-0.183868,
1.2475,-0.14389,
1.248,-0.0979614,
1.2485,-0.0595093,
1.249,-0.0698853,
1.2495,-0.111542,
1.25,-0.126953,
1.2505,-0.0727844,
1.251,0.0296021,
1.2515,0.0956726,
1.252,0.0746155,
1.2525,-0.000762939,
1.253,-0.0582886,
1.2535,-0.0694275,
1.254,-0.0389099,
1.2545,0.00335693,
1.255,0.030365,
1.2555,0.0434875,
1.256,0.0663757,
1.2565,0.101624,
1.257,0.100708,
1.2575,0.0550842,
1.258,0.0218201,
1.2585,0.0222778,
1.259,0.00671387,
1.2595,-0.0465393,
1.26,-0.108032,
1.2605,-0.127411,
1.261,-0.0793457,
1.2615,0.00854492,
1.262,0.0579834,
1.2625,0.0396729,
1.263,0.00778198,
1.2635,-0.00595093,
1.264,-0.019989,
1.2645,-0.0468445,
1.265,-0.067749,
1.2655,-0.0402832,
1.266,0.0343323,
1.2665,0.0823975,
1.267,0.0627136,
1.2675,0.0112915,
1.268,-0.0413513,
1.2685,-0.0947571,
1.269,-0.136871,
1.2695,-0.123749,
1.27,-0.0588989,
1.2705,0.0152588,
1.271,0.0814819,
1.2715,0.148315,
1.272,0.194855,
1.2725,0.207825,
1.273,0.210419,
1.2735,0.215302,
1.274,0.215454,
1.2745,0.196075,
1.275,0.131989,
1.2755,0.0256348,
1.276,-0.0767517,
1.2765,-0.128326,
1.277,-0.125732,
1.2775,-0.104828,
1.278,-0.0857544,
1.2785,-0.0706482,
1.279,-0.0608826,
1.2795,-0.0494385,
1.28,-0.0299072,
1.2805,-0.00610352,
1.281,0.0111389,
1.2815,0.039978,
1.282,0.0923157,
1.2825,0.115967,
1.283,0.0733948,
1.2835,0.00915527,
1.284,-0.0386047,
1.2845,-0.0683594,
1.285,-0.0888062,
1.2855,-0.105896,
1.286,-0.123901,
1.2865,-0.132751,
1.287,-0.118713,
1.2875,-0.101929,
1.288,-0.107422,
1.2885,-0.134888,
1.289,-0.170135,
1.2895,-0.198212,
1.29,-0.2211,
1.2905,-0.240936,
1.291,-0.228271,
1.2915,-0.163879,
1.292,-0.0801086,
1.2925,-0.0442505,
1.293,-0.0511169,
1.2935,-0.0183105,
1.294,0.0769043,
1.2945,0.184479,
1.295,0.271606,
1.2955,0.32959,
1.296,0.363312,
1.2965,0.366974,
1.297,0.353394,
1.2975,0.336914,
1.298,0.288849,
1.2985,0.198822,
1.299,0.112457,
1.2995,0.0440979,
1.3,-0.0109863,
1.3005,-0.0260925,
1.301,0.0102234,
1.3015,0.0537109,
1.302,0.0611877,
1.3025,0.0424194,
1.303,0.0205994,
1.3035,-0.00778198,
1.304,-0.0386047,
1.3045,-0.0509644,
1.305,-0.0469971,
1.3055,-0.0497437,
1.306,-0.0697327,
1.3065,-0.0990295,
1.307,-0.125885,
1.3075,-0.139008,
1.308,-0.137787,
1.3085,-0.137634,
1.309,-0.134583,
1.3095,-0.101166,
1.31,-0.0524902,
1.3105,-0.0418091,
1.311,-0.0927734,
1.3115,-0.180359,
1.312,-0.23468,
1.3125,-0.204926,
1.313,-0.12085,
1.3135,-0.0263977,
1.314,0.0596619,
1.3145,0.112457,
1.315,0.103149,
1.3155,0.0408936,
1.316,-0.00427246,
1.3165,0.0320435,
1.317,0.134277,
1.3175,0.216522,
1.318,0.235443,
1.3185,0.202789,
1.319,0.151825,
1.3195,0.115356,
1.32,0.096283,
1.3205,0.0743103,
1.321,0.0309753,
1.3215,-0.0161743,
1.322,-0.0473022,
1.3225,-0.070343,
1.323,-0.08255,
1.3235,-0.0654602,
1.324,-0.0354004,
1.3245,-0.0178528,
1.325,-0.0128174,
1.3255,-0.000915527,
1.326,0.0236511,
1.3265,0.0500488,
1.327,0.0616455,
1.3275,0.0654602,
1.328,0.0747681,
1.3285,0.070343,
1.329,0.0482178,
1.3295,0.0442505,
1.33,0.065155,
1.3305,0.0758362,
1.331,0.0509644,
1.3315,0.00244141,
1.332,-0.0357056,
1.3325,-0.0660706,
1.333,-0.112305,
1.3335,-0.158691,
1.334,-0.177765,
1.3345,-0.184479,
1.335,-0.193787,
1.3355,-0.178528,
1.336,-0.118103,
1.3365,-0.062561,
1.337,-0.0669861,
1.3375,-0.106049,
1.338,-0.117798,
1.3385,-0.08255,
1.339,-0.0326538,
1.3395,0.0160217,
1.34,0.0878906,
1.3405,0.183868,
1.341,0.262451,
1.3415,0.294037,
1.342,0.279694,
1.3425,0.216827,
1.343,0.108643,
1.3435,0.00473022,
1.344,-0.0315857,
1.3445,-0.0177002,
1.345,0.00732422,
1.3455,0.0991821,
1.346,0.276031,
1.3465,0.41626,
1.347,0.419769,
1.3475,0.30426,
1.348,0.15274,
1.3485,0.0402832,
1.349,-0.0132751,
1.3495,-0.037384,
1.35,-0.0668335,
1.3505,-0.0953674,
1.351,-0.0964355,
1.3515,-0.0796509,
1.352,-0.0628662,
1.3525,-0.0286865,
1.353,0.0138855,
1.3535,0.00595093,
1.354,-0.0561523,
1.3545,-0.10498,
1.355,-0.111542,
1.3555,-0.108795,
1.356,-0.124969,
1.3565,-0.151825,
1.357,-0.19928,
1.3575,-0.254669,
1.358,-0.275269,
1.3585,-0.255432,
1.359,-0.228882,
1.3595,-0.192108,
1.36,-0.126801,
1.3605,-0.0450134,
1.361,0.0549316,
1.3615,0.174561,
1.362,0.252075,
1.3625,0.231476,
1.363,0.146484,
1.3635,0.0502014,
1.364,-0.0396729,
1.3645,-0.098114,
1.365,-0.111084,
1.3655,-0.118408,
1.366,-0.155182,
1.3665,-0.194397,
1.367,-0.203094,
1.3675,-0.209808,
1.368,-0.249939,
1.3685,-0.291138,
1.369,-0.279388,
1.3695,-0.196991,
1.37,-0.093689,
1.3705,-0.0102234,
1.371,0.0604248,
1.3715,0.088501,
1.372,0.0572205,
1.3725,0.0444031,
1.373,0.110321,
1.3735,0.180054,
1.374,0.177917,
1.3745,0.147095,
1.375,0.119629,
1.3755,0.0765991,
1.376,0.0160217,
1.3765,-0.0274658,
1.377,-0.0239563,
1.3775,-0.00610352,
1.378,-0.0149536,
1.3785,-0.0236511,
1.379,0.00549316,
1.3795,0.0205994,
1.38,-0.0183105,
1.3805,-0.090332,
1.381,-0.163574,
1.3815,-0.208282,
1.382,-0.201874,
1.3825,-0.155792,
1.383,-0.0999451,
1.3835,-0.0531006,
1.384,-0.0126648,
1.3845,0.00930786,
1.385,-0.00991821,
1.3855,-0.0570679,
1.386,-0.112762,
1.3865,-0.157318,
1.387,-0.154877,
1.3875,-0.10849,
1.388,-0.0558472,
1.3885,-0.0231934,
1.389,-0.0346375,
1.3895,-0.0653076,
1.39,-0.0611877,
1.3905,-0.0170898,
1.391,0.0495911,
1.3915,0.115204,
1.392,0.167694,
1.3925,0.222168,
1.393,0.296173,
1.3935,0.386047,
1.394,0.466003,
1.3945,0.492706,
1.395,0.448608,
1.3955,0.38269,
1.396,0.351257,
1.3965,0.324249,
1.397,0.255585,
1.3975,0.175934,
1.398,0.119934,
1.3985,0.0846863,
1.399,0.0648499,
1.3995,0.0596619,
1.4,0.0431824,
1.4005,0.017395,
1.401,0.00396729,
1.4015,0.00335693,
1.402,0.0102234,
1.4025,0.0172424,
1.403,0.0117493,
1.4035,0.00640869,
1.404,0.0132751,
1.4045,0.0138855,
1.405,0.00335693,
1.4055,-0.00305176,
1.406,0.000762939,
1.4065,-0.00762939,
1.407,-0.0389099,
1.4075,-0.0708008,
1.408,-0.112762,
1.4085,-0.22995,
1.409,-0.422974,
1.4095,-0.678253,
1.41,-0.963135,
1.4105,-1.14166,
1.411,-1.15204,
1.4115,-1.06842,
1.412,-1.00327,
1.4125,-0.983582,
1.413,-0.922852,
1.4135,-0.719147,
1.414,-0.385132,
1.4145,-0.0592041,
1.415,0.177155,
1.4155,0.348206,
1.416,0.42572,
1.4165,0.432739,
1.417,0.427704,
1.4175,0.426636,
1.418,0.461121,
1.4185,0.577087,
1.419,0.748596,
1.4195,0.882874,
1.42,0.929871,
1.4205,0.8815,
1.421,0.794983,
1.4215,0.755157,
1.422,0.749512,
1.4225,0.711212,
1.423,0.621338,
1.4235,0.506134,
1.424,0.400543,
1.4245,0.321503,
1.425,0.241241,
1.4255,0.131836,
1.426,0.0244141,
1.4265,-0.038147,
1.427,-0.0253296,
1.4275,0.0422668,
1.428,0.144043,
1.4285,0.264893,
1.429,0.338287,
1.4295,0.331268,
1.43,0.260315,
1.4305,0.146332,
1.431,0.0178528,
1.4315,-0.100555,
1.432,-0.173187,
1.4325,-0.170441,
1.433,-0.119476,
1.4335,-0.0715637,
1.434,-0.0286865,
1.4345,0.022583,
1.435,0.065155,
1.4355,0.045166,
1.436,-0.0547791,
1.4365,-0.188141,
1.437,-0.330963,
1.4375,-0.432739,
1.438,-0.434113,
1.4385,-0.384827,
1.439,-0.340424,
1.4395,-0.312347,
1.44,-0.303345,
1.4405,-0.304108,
1.441,-0.308075,
1.4415,-0.323181,
1.442,-0.353546,
1.4425,-0.385132,
1.443,-0.379639,
1.4435,-0.321655,
1.444,-0.225372,
1.4445,-0.0921631,
1.445,0.0404358,
1.4455,0.0946045,
1.446,0.0799561,
1.4465,0.0588989,
1.447,0.0669861,
1.4475,0.132751,
1.448,0.206909,
1.4485,0.194855,
1.449,0.098114,
1.4495,-0.00976563,
1.45,-0.0921631,
1.4505,-0.170135,
1.451,-0.248566,
1.4515,-0.293732,
1.452,-0.281067,
1.4525,-0.239868,
1.453,-0.188293,
1.4535,-0.111847,
1.454,-0.04776,
1.4545,-0.0502014,
1.455,-0.100555,
1.4555,-0.142059,
1.456,-0.132904,
1.4565,-0.101471,
1.457,-0.090332,
1.4575,-0.0617981,
1.458,0.0219727,
1.4585,0.10437,
1.459,0.130768,
1.4595,0.122833,
1.46,0.104523,
1.4605,0.0602722,
1.461,-0.0210571,
1.4615,-0.0857544,
1.462,-0.08255,
1.4625,-0.0572205,
1.463,-0.0720215,
1.4635,-0.119629,
1.464,-0.151215,
1.4645,-0.164795,
1.465,-0.189667,
1.4655,-0.228729,
1.466,-0.265198,
1.4665,-0.293884,
1.467,-0.329132,
1.4675,-0.377502,
1.468,-0.418243,
1.4685,-0.430298,
1.469,-0.43808,
1.4695,-0.435486,
1.47,-0.387878,
1.4705,-0.308075,
1.471,-0.203247,
1.4715,-0.0671387,
1.472,0.0695801,
1.4725,0.157623,
1.473,0.159607,
1.4735,0.0863647,
1.474,0.00335693,
1.4745,-0.0270081,
1.475,-0.0111389,
1.4755,0.0135803,
1.476,0.0660706,
1.4765,0.175171,
1.477,0.303955,
1.4775,0.395203,
1.478,0.458069,
1.4785,0.507813,
1.479,0.501404,
1.4795,0.401154,
1.48,0.241089,
1.4805,0.103912,
1.481,0.0457764,
1.4815,0.0492859,
1.482,0.0643921,
1.4825,0.0918579,
1.483,0.123138,
1.4835,0.124817,
1.484,0.0921631,
1.4845,0.0190735,
1.485,-0.0698853,
1.4855,-0.129242,
1.486,-0.15152,
1.4865,-0.155792,
1.487,-0.165405,
1.4875,-0.199127,
1.488,-0.244141,
1.4885,-0.271759,
1.489,-0.286407,
1.4895,-0.298309,
1.49,-0.326385,
1.4905,-0.349426,
1.491,-0.32486,
1.4915,-0.262146,
1.492,-0.184937,
1.4925,-0.0839233,
1.493,0.0550842,
1.4935,0.187225,
1.494,0.259094,
1.4945,0.313416,
1.495,0.383148,
1.4955,0.43869,
1.496,0.451813,
1.4965,0.428314,
1.497,0.37262,
1.4975,0.281677,
1.498,0.183868,
1.4985,0.105286,
1.499,0.0579834,
1.4995,0.0564575,
1.5,0.0993347,
1.5005,0.167999,
1.501,0.269623,
1.5015,0.399933,
1.502,0.479584,
1.5025,0.458069,
1.503,0.358429,
1.5035,0.216827,
1.504,0.0746155,
1.5045,-0.0254822,
1.505,-0.0776672,
1.5055,-0.11322,
1.506,-0.141296,
1.5065,-0.158386,
1.507,-0.177612,
1.5075,-0.196991,
1.508,-0.216217,
1.5085,-0.245056,
1.509,-0.23468,
1.5095,-0.142365,
1.51,-0.0335693,
1.5105,0.0259399,
1.511,0.0315857,
1.5115,0.00930786,
1.512,0.00930786,
1.5125,0.0495911,
1.513,0.0793457,
1.5135,0.0572205,
1.514,0.0146484,
1.5145,-0.019989,
1.515,-0.0469971,
1.5155,-0.0704956,
1.516,-0.102692,
1.5165,-0.136719,
1.517,-0.136414,
1.5175,-0.098877,
1.518,-0.0514221,
1.5185,-0.0180054,
1.519,-0.0195313,
1.5195,-0.0564575,
1.52,-0.106659,
1.5205,-0.143738,
1.521,-0.153656,
1.5215,-0.162659,
1.522,-0.180969,
1.5225,-0.172424,
1.523,-0.13031,
1.5235,-0.107117,
1.524,-0.101471,
1.5245,-0.0642395,
1.525,-0.00854492,
1.5255,0.00732422,
1.526,-0.0360107,
1.5265,-0.071106,
1.527,-0.0230408,
1.5275,0.0827026,
1.528,0.173798,
1.5285,0.217896,
1.529,0.217285,
1.5295,0.190582,
1.53,0.161743,
1.5305,0.144043,
1.531,0.127563,
1.5315,0.110474,
1.532,0.0915527,
1.5325,0.0439453,
1.533,-0.0294495,
1.5335,-0.0694275,
1.534,-0.0556946,
1.5345,-0.0260925,
1.535,-0.000152588,
1.5355,0.00946045,
1.536,-0.00839233,
1.5365,-0.0508118,
1.537,-0.111084,
1.5375,-0.170898,
1.538,-0.20752,
1.5385,-0.209656,
1.539,-0.171204,
1.5395,-0.128174,
1.54,-0.132141,
1.5405,-0.214844,
1.541,-0.349274,
1.5415,-0.440674,
1.542,-0.444489,
1.5425,-0.389709,
1.543,-0.348206,
1.5435,-0.373993,
1.544,-0.432587,
1.5445,-0.4245,
1.545,-0.300903,
1.5455,-0.128326,
1.546,0.0112915,
1.5465,0.122375,
1.547,0.264893,
1.5475,0.429535,
1.548,0.540466,
1.5485,0.575562,
1.549,0.572052,
1.5495,0.57785,
1.55,0.59433,
1.5505,0.588684,
1.551,0.544586,
1.5515,0.490875,
1.552,0.43457,
1.5525,0.352478,
1.553,0.262756,
1.5535,0.20401,
1.554,0.150452,
1.5545,0.0740051,
1.555,-0.00610352,
1.5555,-0.0584412,
1.556,-0.0967407,
1.5565,-0.149536,
1.557,-0.162201,
1.5575,-0.0805664,
1.558,0.0846863,
1.5585,0.280457,
1.559,0.413666,
1.5595,0.418396,
1.56,0.330505,
1.5605,0.21286,
1.561,0.0987244,
1.5615,0.010376,
1.562,-0.058136,
1.5625,-0.137024,
1.563,-0.211487,
1.5635,-0.266724,
1.564,-0.356445,
1.5645,-0.475311,
1.565,-0.542908,
1.5655,-0.557556,
1.566,-0.571289,
1.5665,-0.586243,
1.567,-0.576477,
1.5675,-0.486908,
1.568,-0.278015,
1.5685,-0.0254822,
1.569,0.180511,
1.5695,0.302887,
1.57,0.348511,
1.5705,0.365753,
1.571,0.412292,
1.5715,0.477448,
1.572,0.485687,
1.5725,0.413818,
1.573,0.303955,
1.5735,0.185242,
1.574,0.071106,
1.5745,-0.0177002,
1.575,-0.0822449,
1.5755,-0.120239,
1.576,-0.122833,
1.5765,-0.114746,
1.577,-0.11795,
1.5775,-0.101929,
1.578,-0.0712585,
1.5785,-0.098114,
1.579,-0.260773,
1.5795,-0.51651,
1.58,-0.67276,
1.5805,-0.662689,
1.581,-0.592957,
1.5815,-0.526733,
1.582,-0.435486,
1.5825,-0.282288,
1.583,-0.0160217,
1.5835,0.310669,
1.584,0.523071,
1.5845,0.594635,
1.585,0.503693,
1.5855,0.353394,
1.586,0.249634,
1.5865,0.183258,
1.587,0.132294,
1.5875,0.11261,
1.588,0.121765,
1.5885,0.0924683,
1.589,0.0233459,
1.5895,-0.00686646,
1.59,0.050354,
1.5905,0.144958,
1.591,0.16571,
1.5915,0.0595093,
1.592,-0.108032,
1.5925,-0.232086,
1.593,-0.280304,
1.5935,-0.26474,
1.594,-0.225067,
1.5945,-0.268555,
1.595,-0.466614,
1.5955,-0.778046,
1.596,-1.11343,
1.5965,-1.3356,
1.597,-1.35452,
1.5975,-1.22604,
1.598,-0.990906,
1.5985,-0.690155,
1.599,-0.366516,
1.5995,-0.065155,
1.6,0.201263,
1.6005,0.454254,
1.601,0.665283,
1.6015,0.802612,
1.602,0.917358,
1.6025,1.04095,
1.603,1.13144,
1.6035,1.19034,
1.604,1.21246,
1.6045,1.15143,
1.605,1.01242,
1.6055,0.851746,
1.606,0.691986,
1.6065,0.534668,
1.607,0.389099,
1.6075,0.268555,
1.608,0.194702,
1.6085,0.163727,
1.609,0.157623,
1.6095,0.16983,
1.61,0.196686,
1.6105,0.223694,
1.611,0.24292,
1.6115,0.249329,
1.612,0.193939,
1.6125,0.0793457,
1.613,-0.0274658,
1.6135,-0.100098,
1.614,-0.148468,
1.6145,-0.17807,
1.615,-0.228271,
1.6155,-0.351868,
1.616,-0.494232,
1.6165,-0.572815,
1.617,-0.592346,
1.6175,-0.582581,
1.618,-0.574799,
1.6185,-0.503082,
1.619,-0.342102,
1.6195,-0.161133,
1.62,-0.0585938,
1.6205,-0.0422668,
1.621,-0.0315857,
1.6215,0.0144958,
1.622,0.0567627,
1.6225,0.0369263,
1.623,-0.0564575,
1.6235,-0.155182,
1.624,-0.201721,
1.6245,-0.209503,
1.625,-0.212708,
1.6255,-0.206146,
1.626,-0.167847,
1.6265,-0.0848389,
1.627,0.00991821,
1.6275,0.0518799,
1.628,0.0186157,
1.6285,-0.039978,
1.629,-0.0424194,
1.6295,0.027771,
1.63,0.0976563,
1.6305,0.114594,
1.631,0.0846863,
1.6315,0.0601196,
1.632,0.0881958,
1.6325,0.177765,
1.633,0.281525,
1.6335,0.319977,
1.634,0.26001,
1.6345,0.171814,
1.635,0.122223,
1.6355,0.0744629,
1.636,0.000152588,
1.6365,-0.0471497,
1.637,-0.0192261,
1.6375,0.0511169,
1.638,0.120697,
1.6385,0.201263,
1.639,0.301056,
1.6395,0.357971,
1.64,0.306244,
1.6405,0.16098,
1.641,0.00106812,
1.6415,-0.127258,
1.642,-0.244141,
1.6425,-0.38681,
1.643,-0.521088,
1.6435,-0.539856,
1.644,-0.486755,
1.6445,-0.461884,
1.645,-0.407715,
1.6455,-0.275879,
1.646,-0.116425,
1.6465,0.00595093,
1.647,0.0979614,
1.6475,0.227814,
1.648,0.382843,
1.6485,0.478668,
1.649,0.49469,
1.6495,0.453033,
1.65,0.339661,
1.6505,0.155945,
1.651,-0.0230408,
1.6515,-0.152435,
1.652,-0.218353,
1.6525,-0.233002,
1.653,-0.22995,
1.6535,-0.209045,
1.654,-0.151978,
1.6545,-0.0593567,
1.655,0.0411987,
1.6555,0.107727,
1.656,0.114899,
1.6565,0.0688171,
1.657,0.025177,
1.6575,0.0337219,
1.658,0.116272,
1.6585,0.262909,
1.659,0.420227,
1.6595,0.498199,
1.66,0.483704,
1.6605,0.416107,
1.661,0.318756,
1.6615,0.227966,
1.662,0.1651,
1.6625,0.11322,
1.663,0.0563049,
1.6635,0.00747681,
1.664,-0.0256348,
1.6645,-0.0486755,
1.665,-0.070343,
1.6655,-0.0894165,
1.666,-0.108337,
1.6665,-0.119934,
1.667,-0.12558,
1.6675,-0.146027,
1.668,-0.180664,
1.6685,-0.227661,
1.669,-0.370636,
1.6695,-0.631561,
1.67,-0.793304,
1.6705,-0.754852,
1.671,-0.641022,
1.6715,-0.501862,
1.672,-0.306702,
1.6725,-0.109711,
1.673,0.00137329,
1.6735,-0.0140381,
1.674,-0.217438,
1.6745,-0.578156,
1.675,-0.853119,
1.6755,-0.961456,
1.676,-1.01181,
1.6765,-1.02737,
1.677,-0.936432,
1.6775,-0.701752,
1.678,-0.345459,
1.6785,0.0654602,
1.679,0.440216,
1.6795,0.7164,
1.68,0.86853,
1.6805,0.944214,
1.681,1.0112,
1.6815,1.07758,
1.682,1.08902,
1.6825,0.986786,
1.683,0.752563,
1.6835,0.514374,
1.684,0.416107,
1.6845,0.397339,
1.685,0.346069,
1.6855,0.290222,
1.686,0.296478,
1.6865,0.353241,
1.687,0.40451,
1.6875,0.408325,
1.688,0.361328,
1.6885,0.278625,
1.689,0.188293,
1.6895,0.117645,
1.69,0.0679016,
1.6905,0.0190735,
1.691,-0.0408936,
1.6915,-0.105286,
1.692,-0.179291,
1.6925,-0.271606,
1.693,-0.353699,
1.6935,-0.416412,
1.694,-0.469513,
1.6945,-0.50705,
1.695,-0.529022,
1.6955,-0.532684,
1.696,-0.486755,
1.6965,-0.429077,
1.697,-0.409698,
1.6975,-0.398712,
1.698,-0.382843,
1.6985,-0.340118,
1.699,-0.262909,
1.6995,-0.1828,
1.7,-0.0949097,
1.7005,-0.0737,
1.701,-0.155487,
1.7015,-0.237579,
1.702,-0.2771,
1.7025,-0.257721,
1.703,-0.153351,
1.7035,-0.00534058,
1.704,0.0878906,
1.7045,0.042572,
1.705,-0.207977,
1.7055,-0.541992,
1.706,-0.695343,
1.7065,-0.668335,
1.707,-0.591888,
1.7075,-0.525208,
1.708,-0.479889,
1.7085,-0.4245,
1.709,-0.274353,
1.7095,0.0111389,
1.71,0.336151,
1.7105,0.537109,
1.711,0.604248,
1.7115,0.635223,
1.712,0.704346,
1.7125,0.841064,
1.713,0.939789,
1.7135,0.881042,
1.714,0.765991,
1.7145,0.744019,
1.715,0.751953,
1.7155,0.68985,
1.716,0.590668,
1.7165,0.536499,
1.717,0.565338,
1.7175,0.62088,
1.718,0.629425,
1.7185,0.595703,
1.719,0.535278,
1.7195,0.418854,
1.72,0.281982,
1.7205,0.218201,
1.721,0.20813,
1.7215,0.145111,
1.722,0.0457764,
1.7225,0.00167847,
1.723,0.042572,
1.7235,0.13031,
1.724,0.200806,
1.7245,0.163574,
1.725,-0.00350952,
1.7255,-0.184631,
1.726,-0.27832,
1.7265,-0.322876,
1.727,-0.346069,
1.7275,-0.333099,
1.728,-0.276184,
1.7285,-0.219269,
1.729,-0.216675,
1.7295,-0.23941,
1.73,-0.19928,
1.7305,-0.0868225,
1.731,0.0233459,
1.7315,0.0544739,
1.732,-0.00152588,
1.7325,-0.109863,
1.733,-0.254822,
1.7335,-0.365906,
1.734,-0.372314,
1.7345,-0.340729,
1.735,-0.345306,
1.7355,-0.318909,
1.736,-0.196686,
1.7365,-0.00442505,
1.737,0.155945,
1.7375,0.20401,
1.738,0.187836,
1.7385,0.172119,
1.739,0.158844,
1.7395,0.139771,
1.74,0.0982666,
1.7405,0.0292969,
1.741,-0.0648499,
1.7415,-0.164795,
1.742,-0.235748,
1.7425,-0.285645,
1.743,-0.421143,
1.7435,-0.666656,
1.744,-0.878601,
1.7445,-0.987396,
1.745,-0.978241,
1.7455,-0.863647,
1.746,-0.638428,
1.7465,-0.310516,
1.747,0.067749,
1.7475,0.396118,
1.748,0.589905,
1.7485,0.63385,
1.749,0.57724,
1.7495,0.477448,
1.75,0.327911,
1.7505,0.129852,
1.751,0.0140381,
1.7515,0.0727844,
1.752,0.221863,
1.7525,0.340729,
1.753,0.41153,
1.7535,0.439911,
1.754,0.395203,
1.7545,0.333252,
1.755,0.301208,
1.7555,0.213623,
1.756,-0.0622559,
1.7565,-0.461578,
1.757,-0.695801,
1.7575,-0.674286,
1.758,-0.531921,
1.7585,-0.383606,
1.759,-0.191193,
1.7595,0.0605774,
1.76,0.218353,
1.7605,0.14801,
1.761,-0.0968933,
1.7615,-0.33844,
1.762,-0.431824,
1.7625,-0.37674,
1.763,-0.247192,
1.7635,-0.0938416,
1.764,0.0561523,
1.7645,0.208588,
1.765,0.323792,
1.7655,0.359344,
1.766,0.347137,
1.7665,0.333099,
1.767,0.327301,
1.7675,0.335999,
1.768,0.373383,
1.7685,0.415955,
1.769,0.430603,
1.7695,0.415955,
1.77,0.369873,
1.7705,0.298309,
1.771,0.287323,
1.7715,0.35553,
1.772,0.418549,
1.7725,0.422058,
1.773,0.36972,
1.7735,0.293427,
1.774,0.184326,
1.7745,-0.0340271,
1.775,-0.327148,
1.7755,-0.542297,
1.776,-0.72998,
1.7765,-0.954895,
1.777,-1.11801,
1.7775,-1.15402,
1.778,-1.19354,
1.7785,-1.30249,
1.779,-1.31149,
1.7795,-1.11389,
1.78,-0.745239,
1.7805,-0.289001,
1.781,0.169525,
1.7815,0.563354,
1.782,0.901184,
1.7825,1.21613,
1.783,1.44455,
1.7835,1.49597,
1.784,1.34689,
1.7845,1.05759,
1.785,0.706024,
1.7855,0.363312,
1.786,0.0907898,
1.7865,-0.0663757,
1.787,-0.127411,
1.7875,-0.17868,
1.788,-0.241089,
1.7885,-0.238953,
1.789,-0.177002,
1.7895,-0.135803,
1.79,-0.116577,
1.7905,-0.0653076,
1.791,-0.000305176,
1.7915,0.0387573,
1.792,0.0872803,
1.7925,0.154877,
1.793,0.217743,
1.7935,0.240173,
1.794,0.178986,
1.7945,0.0680542,
1.795,-0.0228882,
1.7955,-0.0524902,
1.796,-0.0564575,
1.7965,-0.0663757,
1.797,-0.0352478,
1.7975,0.0488281,
1.798,0.128632,
1.7985,0.162354,
1.799,0.139771,
1.7995,0.0509644,
1.8,-0.0776672,
1.8005,-0.201721,
1.801,-0.30426,
1.8015,-0.382385,
1.802,-0.43396,
1.8025,-0.478821,
1.803,-0.509796,
1.8035,-0.502625,
1.804,-0.470734,
1.8045,-0.428467,
1.805,-0.345917,
1.8055,-0.240173,
1.806,-0.224457,
1.8065,-0.321198,
1.807,-0.344696,
1.8075,-0.207367,
1.808,-0.125885,
1.8085,-0.364685,
1.809,-0.823669,
1.8095,-1.1618,
1.81,-1.23199,
1.8105,-1.10962,
1.811,-0.843506,
1.8115,-0.457458,
1.812,-0.0245667,
1.8125,0.348206,
1.813,0.607147,
1.8135,0.768738,
1.814,0.827026,
1.8145,0.766754,
1.815,0.601501,
1.8155,0.357666,
1.816,0.162354,
1.8165,0.163574,
1.817,0.312042,
1.8175,0.459137,
1.818,0.600586,
1.8185,0.745697,
1.819,0.821991,
1.8195,0.820618,
1.82,0.81955,
1.8205,0.804138,
1.821,0.69458,
1.8215,0.536041,
1.822,0.388336,
1.8225,0.246429,
1.823,0.122681,
1.8235,0.0386047,
1.824,-0.0134277,
1.8245,-0.0563049,
1.825,-0.112305,
1.8255,-0.170898,
1.826,-0.201721,
1.8265,-0.210724,
1.827,-0.21225,
1.8275,-0.196533,
1.828,-0.172882,
1.8285,-0.153961,
1.829,-0.141602,
1.8295,-0.137329,
1.83,-0.142365,
1.8305,-0.144653,
1.831,-0.130005,
1.8315,-0.107422,
1.832,-0.115662,
1.8325,-0.153198,
1.833,-0.175476,
1.8335,-0.150299,
1.834,-0.0840759,
1.8345,-0.0323486,
1.835,-0.0585938,
1.8355,-0.161896,
1.836,-0.282288,
1.8365,-0.382385,
1.837,-0.455322,
1.8375,-0.49469,
1.838,-0.493927,
1.8385,-0.486603,
1.839,-0.505829,
1.8395,-0.490417,
1.84,-0.410919,
1.8405,-0.32608,
1.841,-0.287018,
1.8415,-0.275116,
1.842,-0.237885,
1.8425,-0.187378,
1.843,-0.155334,
1.8435,-0.120544,
1.844,-0.0248718,
1.8445,0.111694,
1.845,0.216064,
1.8455,0.261688,
1.846,0.269012,
1.8465,0.293427,
1.847,0.353241,
1.8475,0.390625,
1.848,0.382538,
1.8485,0.382996,
1.849,0.42984,
1.8495,0.490265,
1.85,0.505981,
1.8505,0.472107,
1.851,0.41275,
1.8515,0.358276,
1.852,0.340118,
1.8525,0.319824,
1.853,0.256195,
1.8535,0.171509,
1.854,0.0982666,
1.8545,0.0508118,
1.855,0.0146484,
1.8555,-0.0372314,
1.856,-0.0999451,
1.8565,-0.141602,
1.857,-0.142365,
1.8575,-0.121002,
1.858,-0.102692,
1.8585,-0.0753784,
1.859,-0.0224304,
1.8595,0.0392151,
1.86,0.0526428,
1.8605,0.00198364,
1.861,-0.0756836,
1.8615,-0.141602,
1.862,-0.17334,
1.8625,-0.176544,
1.863,-0.177307,
1.8635,-0.192108,
1.864,-0.197601,
1.8645,-0.180817,
1.865,-0.157318,
1.8655,-0.171204,
1.866,-0.311432,
1.8665,-0.646362,
1.867,-1.08521,
1.8675,-1.315,
1.868,-1.20804,
1.8685,-0.873718,
1.869,-0.414276,
1.8695,0.128326,
1.87,0.65506,
1.8705,1.03607,
1.871,1.25839,
1.8715,1.34171,
1.872,1.27258,
1.8725,1.09207,
1.873,0.851898,
1.8735,0.618744,
1.874,0.470886,
1.8745,0.386047,
1.875,0.285339,
1.8755,0.176697,
1.876,0.105286,
1.8765,0.0576782,
1.877,-0.00579834,
1.8775,-0.0779724,
1.878,-0.124359,
1.8785,-0.123291,
1.879,-0.107269,
1.8795,-0.110321,
1.88,-0.105743,
1.8805,-0.0610352,
1.881,-0.0126648,
1.8815,-0.0213623,
1.882,-0.0932312,
1.8825,-0.149689,
1.883,-0.190125,
1.8835,-0.307617,
1.884,-0.458984,
1.8845,-0.516357,
1.885,-0.480804,
1.8855,-0.4216,
1.886,-0.359802,
1.8865,-0.297241,
1.887,-0.245056,
1.8875,-0.192719,
1.888,-0.145416,
1.8885,-0.133514,
1.889,-0.154114,
1.8895,-0.142822,
1.89,-0.0706482,
1.8905,0.00244141,
1.891,0.019989,
1.8915,0.0175476,
1.892,0.0587463,
1.8925,0.137329,
1.893,0.189667,
1.8935,0.207062,
1.894,0.229492,
1.8945,0.244598,
1.895,0.148621,
1.8955,-0.062561,
1.896,-0.227661,
1.8965,-0.288696,
1.897,-0.280762,
1.8975,-0.22522,
1.898,-0.126648,
1.8985,-0.0415039,
1.899,-0.0502014,
1.8995,-0.139465,
1.9,-0.191345,
1.9005,-0.141449,
1.901,-0.0354004,
1.9015,0.0384521,
1.902,0.126038,
1.9025,0.303192,
1.903,0.497131,
1.9035,0.628204,
1.904,0.684662,
1.9045,0.686188,
1.905,0.646515,
1.9055,0.556793,
1.906,0.410614,
1.9065,0.253296,
1.907,0.142822,
1.9075,0.0788879,
1.908,0.0535583,
1.9085,0.0653076,
1.909,0.0645447,
1.9095,0.0382996,
1.91,0.0296021,
1.9105,0.0239563,
1.911,-0.00473022,
1.9115,-0.0363159,
1.912,-0.0639343,
1.9125,-0.105743,
1.913,-0.129852,
1.9135,-0.100861,
1.914,-0.0428772,
1.9145,-0.000915527,
1.915,0.0311279,
1.9155,0.0695801,
1.916,0.070343,
1.9165,0.0166321,
1.917,-0.0553894,
1.9175,-0.135193,
1.918,-0.279694,
1.9185,-0.513763,
1.919,-0.724792,
1.9195,-0.758514,
1.92,-0.638275,
1.9205,-0.452576,
1.921,-0.242615,
1.9215,-0.0679016,
1.922,0.022583,
1.9225,0.0637817,
1.923,0.0924683,
1.9235,0.083313,
1.924,0.0105286,
1.9245,-0.0996399,
1.925,-0.178528,
1.9255,-0.171661,
1.926,-0.0924683,
1.9265,0.0050354,
1.927,0.0909424,
1.9275,0.13031,
1.928,0.109253,
1.9285,0.0430298,
1.929,-0.085144,
1.9295,-0.2211,
1.93,-0.269012,
1.9305,-0.245972,
1.931,-0.209351,
1.9315,-0.155792,
1.932,-0.0358582,
1.9325,0.143738,
1.933,0.316162,
1.9335,0.406494,
1.934,0.415649,
1.9345,0.388336,
1.935,0.36087,
1.9355,0.343781,
1.936,0.295105,
1.9365,0.20462,
1.937,0.101166,
1.9375,0.0213623,
1.938,-0.00671387,
1.9385,-0.00473022,
1.939,-0.00488281,
1.9395,-0.0215149,
1.94,-0.0482178,
1.9405,-0.0482178,
1.941,-0.0012207,
1.9415,0.0404358,
1.942,0.00320435,
1.9425,-0.102844,
1.943,-0.233002,
1.9435,-0.463562,
1.944,-0.803375,
1.9445,-1.01425,
1.945,-0.958252,
1.9455,-0.752869,
1.946,-0.500031,
1.9465,-0.162354,
1.947,0.2005,
1.9475,0.471802,
1.948,0.651093,
1.9485,0.69519,
1.949,0.520477,
1.9495,0.18158,
1.95,-0.164337,
1.9505,-0.389404,
1.951,-0.523376,
1.9515,-0.591583,
1.952,-0.577545,
1.9525,-0.518341,
1.953,-0.4216,
1.9535,-0.258636,
1.954,-0.0720215,
1.9545,0.0709534,
1.955,0.158081,
1.9555,0.222931,
1.956,0.280304,
1.9565,0.302887,
1.957,0.150757,
1.9575,-0.237579,
1.958,-0.530701,
1.9585,-0.448303,
1.959,-0.156708,
1.9595,0.132294,
1.96,0.407104,
1.9605,0.660706,
1.961,0.832825,
1.9615,0.94696,
1.962,1.03165,
1.9625,1.0289,
1.963,0.899048,
1.9635,0.686035,
1.964,0.488892,
1.9645,0.372772,
1.965,0.365601,
1.9655,0.386963,
1.966,0.359344,
1.9665,0.316162,
1.967,0.282898,
1.9675,0.249329,
1.968,0.208435,
1.9685,0.167694,
1.969,0.112152,
1.9695,0.0178528,
1.97,-0.0881958,
1.9705,-0.160065,
1.971,-0.19577,
1.9715,-0.209961,
1.972,-0.217896,
1.9725,-0.215759,
1.973,-0.200806,
1.9735,-0.180664,
1.974,-0.174255,
1.9745,-0.166626,
1.975,-0.128479,
1.9755,-0.0883484,
1.976,-0.0933838,
1.9765,-0.136719,
1.977,-0.196533,
1.9775,-0.258789,
1.978,-0.303497,
1.9785,-0.317535,
1.979,-0.306549,
1.9795,-0.289001,
1.98,-0.286255,
1.9805,-0.280762,
1.981,-0.234985,
1.9815,-0.150757,
1.982,-0.0846863,
1.9825,-0.0820923,
1.983,-0.0878906,
1.9835,-0.0288391,
1.984,0.0540161,
1.9845,0.0592041,
1.985,-0.0111389,
1.9855,-0.0680542,
1.986,-0.0680542,
1.9865,-0.0427246,
1.987,-0.0172424,
1.9875,0.0140381,
1.988,0.0108337,
1.9885,-0.0357056,
1.989,-0.0822449,
1.9895,-0.108185,
1.99,-0.128937,
1.9905,-0.167389,
1.991,-0.204163,
1.9915,-0.203247,
1.992,-0.173798,
1.9925,-0.158386,
1.993,-0.151825,
1.9935,-0.143585,
1.994,-0.140381,
1.9945,-0.106201,
1.995,-0.0250244,
1.9955,0.0488281,
1.996,0.0621033,
1.9965,0.0186157,
1.997,-0.0305176,
1.9975,-0.037384,
1.998,0.00930786,
1.9985,0.0686646,
1.999,0.0865173,
1.9995,0.0698853,
2,0.0698853,
2.0005,0.0987244,
2.001,0.117493,
2.0015,0.0950623,
2.002,0.0643921,
2.0025,0.0502014,
2.003,0.0579834,
2.0035,0.0872803,
2.004,0.140533,
2.0045,0.191803,
2.005,0.187683,
2.0055,0.126038,
2.006,0.0639343,
2.0065,0.0360107,
2.007,0.0250244,
2.0075,0.0160217,
2.008,0.00762939,
2.0085,-0.000762939,
2.009,-0.0270081,
2.0095,-0.0759888,
2.01,-0.109253,
2.0105,-0.112,
2.011,-0.105743,
2.0115,-0.0836182,
2.012,-0.052948,
2.0125,-0.0610352,
2.013,-0.13504,
2.0135,-0.281067,
2.014,-0.490265,
2.0145,-0.696564,
2.015,-0.82428,
2.0155,-0.800171,
2.016,-0.647888,
2.0165,-0.429535,
2.017,-0.175018,
2.0175,0.0415039,
2.018,0.160522,
2.0185,0.189362,
2.019,0.139771,
2.0195,0.0317383,
2.02,-0.0410461,
2.0205,-0.00244141,
2.021,0.149078,
2.0215,0.396729,
2.022,0.665436,
2.0225,0.827942,
2.023,0.843658,
2.0235,0.778198,
2.024,0.701141,
2.0245,0.605469,
2.025,0.496979,
2.0255,0.384674,
2.026,0.294189,
2.0265,0.2565,
2.027,0.257263,
2.0275,0.235901,
2.028,0.176697,
2.0285,0.113678,
2.029,0.0352478,
2.0295,-0.0575256,
2.03,-0.125122,
2.0305,-0.153656,
2.031,-0.163269,
2.0315,-0.169373,
2.032,-0.175781,
2.0325,-0.176392,
2.033,-0.158386,
2.0335,-0.124207,
2.034,-0.0796509,
2.0345,-0.0439453,
2.035,-0.0209045,
2.0355,-0.015564,
2.036,-0.0341797,
2.0365,-0.0601196,
2.037,-0.0494385,
2.0375,0.00183105,
2.038,0.0515747,
2.0385,0.0849915,
2.039,0.0909424,
2.0395,0.0105286,
2.04,-0.113983,
2.0405,-0.162354,
2.041,-0.141296,
2.0415,-0.132446,
2.042,-0.147552,
2.0425,-0.133972,
2.043,-0.0720215,
2.0435,0.0257874,
2.044,0.119019,
2.0445,0.151062,
2.045,0.115967,
2.0455,0.0424194,
2.046,-0.0297546,
2.0465,-0.0706482,
2.047,-0.0773621,
2.0475,-0.0671387,
2.048,-0.0869751,
2.0485,-0.135498,
2.049,-0.175629,
2.0495,-0.221405,
2.05,-0.270386,
2.0505,-0.274353,
2.051,-0.22934,
2.0515,-0.176239,
2.052,-0.132751,
2.0525,-0.103607,
2.053,-0.0871277,
2.0535,-0.0604248,
2.054,-0.014801,
2.0545,0.0418091,
2.055,0.0733948,
2.0555,0.0563049,
2.056,0.0447083,
2.0565,0.0923157,
2.057,0.160522,
2.0575,0.192261,
2.058,0.185547,
2.0585,0.156555,
2.059,0.0959778,
2.0595,0.00167847,
2.06,-0.0720215,
2.0605,-0.0720215,
2.061,-0.0183105,
2.0615,0.018158,
2.062,-0.0100708,
2.0625,-0.085907,
2.063,-0.159454,
2.0635,-0.175629,
2.064,-0.107727,
2.0645,-0.00106812,
2.065,0.0794983,
2.0655,0.153809,
2.066,0.265198,
2.0665,0.346222,
2.067,0.283966,
2.0675,0.0746155,
2.068,-0.144196,
2.0685,-0.256653,
2.069,-0.2771,
2.0695,-0.24231,
2.07,-0.160828,
2.0705,-0.0627136,
2.071,-0.0088501,
2.0715,-0.000915527,
2.072,-0.0218201,
2.0725,-0.0382996,
2.073,-0.0260925,
2.0735,0.00289917,
2.074,0.0328064,
2.0745,0.0434875,
2.075,0.0372314,
2.0755,0.0361633,
2.076,0.0523376,
2.0765,0.0567627,
2.077,0.040741,
2.0775,0,
2.078,-0.0732422,
2.0785,-0.142059,
2.079,-0.169678,
2.0795,-0.166016,
2.08,-0.161133,
2.0805,-0.117798,
2.081,0.0123596,
2.0815,0.161133,
2.082,0.230865,
2.0825,0.208435,
2.083,0.157013,
2.0835,0.125275,
2.084,0.118408,
2.0845,0.129242,
2.085,0.137177,
2.0855,0.124664,
2.086,0.0930786,
2.0865,0.0584412,
2.087,0.0358582,
2.0875,0.0160217,
2.088,-0.00854492,
2.0885,-0.0210571,
2.089,-0.012207,
2.0895,-0.000915527,
2.09,-0.00640869,
2.0905,-0.0234985,
2.091,-0.0424194,
2.0915,-0.062561,
2.092,-0.0717163,
2.0925,-0.067749,
2.093,-0.0741577,
2.0935,-0.0999451,
2.094,-0.115967,
2.0945,-0.118256,
2.095,-0.119934,
2.0955,-0.129852,
2.096,-0.138245,
2.0965,-0.136108,
2.097,-0.131531,
2.0975,-0.113373,
2.098,-0.0665283,
2.0985,-0.020752,
2.099,-0.01297,
2.0995,-0.0437927,
2.1,-0.105591,
2.1005,-0.173187,
2.101,-0.200348,
2.1015,-0.191498,
2.102,-0.187988,
2.1025,-0.192413,
2.103,-0.191956,
2.1035,-0.180054,
2.104,-0.0941467,
2.1045,0.129547,
2.105,0.387726,
2.1055,0.466461,
2.106,0.334473,
2.1065,0.175323,
2.107,0.11673,
2.1075,0.0982666,
2.108,0.00762939,
2.1085,-0.147095,
2.109,-0.261993,
2.1095,-0.297546,
2.11,-0.269775,
2.1105,-0.18219,
2.111,-0.0561523,
2.1115,0.0737,
2.112,0.19989,
2.1125,0.297089,
2.113,0.316772,
2.1135,0.26062,
2.114,0.176392,
2.1145,0.102539,
2.115,0.0454712,
2.1155,-0.00411987,
2.116,-0.0169373,
2.1165,0.0341797,
2.117,0.0979614,
2.1175,0.12558,
2.118,0.118866,
2.1185,0.0799561,
2.119,0.0340271,
2.1195,0.00183105,
2.12,-0.00717163,
2.1205,0.0112915,
2.121,0.0288391,
2.1215,0.0100708,
2.122,-0.0337219,
2.1225,-0.0561523,
2.123,-0.0428772,
2.1235,-0.0239563,
2.124,-0.0213623,
2.1245,-0.0283813,
2.125,-0.0325012,
2.1255,-0.0263977,
2.126,-0.0190735,
2.1265,-0.0244141,
2.127,-0.0311279,
2.1275,-0.0154114,
2.128,0.00854492,
2.1285,0.0209045,
2.129,0.0106812,
2.1295,-0.0387573,
2.13,-0.103302,
2.1305,-0.166779,
2.131,-0.234375,
2.1315,-0.296631,
2.132,-0.324402,
2.1325,-0.286255,
2.133,-0.18158,
2.1335,-0.0415039,
2.134,0.107117,
2.1345,0.243835,
2.135,0.334473,
2.1355,0.387268,
2.136,0.367737,
2.1365,0.247955,
2.137,0.0907898,
2.1375,-0.0236511,
2.138,-0.0531006,
2.1385,-0.0254822,
2.139,-0.0135803,
2.1395,-0.0241089,
2.14,-0.0212097,
2.1405,-0.0161743,
2.141,-0.00320435,
2.1415,0.0259399,
2.142,0.0418091,
2.1425,0.0466919,
2.143,0.0598145,
2.1435,0.0665283,
2.144,0.0367737,
2.1445,-0.0416565,
2.145,-0.130463,
2.1455,-0.178528,
2.146,-0.190125,
2.1465,-0.186462,
2.147,-0.165253,
2.1475,-0.102539,
2.148,0.00747681,
2.1485,0.129547,
2.149,0.203247,
2.1495,0.19577,
2.15,0.130615,
2.1505,0.0737,
2.151,0.0645447,
2.1515,0.0975037,
2.152,0.133667,
2.1525,0.136108,
2.153,0.093689,
2.1535,0.0259399,
2.154,-0.0233459,
2.1545,-0.0312805,
2.155,-0.00198364,
2.1555,0.0245667,
2.156,0.0167847,
2.1565,0.00488281,
2.157,0.0239563,
2.1575,0.043335,
2.158,0.0126648,
2.1585,-0.0572205,
2.159,-0.114136,
2.1595,-0.129852,
2.16,-0.114441,
2.1605,-0.0886536,
2.161,-0.0634766,
2.1615,-0.0352478,
2.162,0.000610352,
2.1625,0.0398254,
2.163,0.0515747,
2.1635,0.00701904,
2.164,-0.0537109,
2.1645,-0.083313,
2.165,-0.102997,
2.1655,-0.136261,
2.166,-0.162354,
2.1665,-0.169525,
2.167,-0.153351,
2.1675,-0.103149,
2.168,-0.0302124,
2.1685,0.0392151,
2.169,0.0845337,
2.1695,0.0970459,
2.17,0.0820923,
2.1705,0.0621033,
2.171,0.065918,
2.1715,0.093689,
2.172,0.125275,
2.1725,0.118408,
2.173,0.0537109,
2.1735,-0.0238037,
2.174,-0.0549316,
2.1745,-0.0410461,
2.175,-0.0494385,
2.1755,-0.0941467,
2.176,-0.112305,
2.1765,-0.0671387,
2.177,0.0424194,
2.1775,0.199585,
2.178,0.318298,
2.1785,0.299377,
2.179,0.173798,
2.1795,0.0384521,
2.18,-0.0393677,
2.1805,-0.0531006,
2.181,-0.052948,
2.1815,-0.0485229,
2.182,-0.0154114,
2.1825,0.032196,
2.183,0.0823975,
2.1835,0.140839,
2.184,0.158234,
2.1845,0.0921631,
2.185,-0.0143433,
2.1855,-0.0968933,
2.186,-0.135956,
2.1865,-0.13916,
2.187,-0.111542,
2.1875,-0.0611877,
2.188,-0.0175476,
2.1885,-0.0183105,
2.189,-0.0418091,
2.1895,-0.0302124,
2.19,0.00289917,
2.1905,-0.00198364,
2.191,-0.0233459,
2.1915,-0.0131226,
2.192,0.0215149,
2.1925,0.0521851,
2.193,0.0720215,
2.1935,0.0871277,
2.194,0.0991821,
2.1945,0.0926208,
2.195,0.0518799,
2.1955,-0.00228882,
2.196,-0.035553,
2.1965,-0.0289917,
2.197,-0.00656128,
2.1975,-0.0131226,
2.198,-0.0483704,
2.1985,-0.0764465,
2.199,-0.0798035,
2.1995,-0.0871277,
2.2,-0.120392,
2.2005,-0.160828,
2.201,-0.17807,
2.2015,-0.144653,
2.202,-0.0582886,
2.2025,0.0364685,
2.203,0.0816345,
2.2035,0.0656128,
2.204,0.0566101,
2.2045,0.10849,
2.205,0.195465,
2.2055,0.233917,
2.206,0.188904,
2.2065,0.109863,
2.207,0.0720215,
2.2075,0.075531,
2.208,0.0671387,
2.2085,0.0396729,
2.209,0.0195313,
2.2095,0.00991821,
2.21,-0.00793457,
2.2105,-0.0517273,
2.211,-0.1091,
2.2115,-0.142975,
2.212,-0.159454,
2.2125,-0.194244,
2.213,-0.230255,
2.2135,-0.242615,
2.214,-0.234528,
2.2145,-0.205994,
2.215,-0.159302,
2.2155,-0.0891113,
2.216,0.032196,
2.2165,0.180817,
2.217,0.290527,
2.2175,0.341339,
2.218,0.328217,
2.2185,0.252838,
2.219,0.163727,
2.2195,0.10498,
2.22,0.0787354,
2.2205,0.0671387,
2.221,0.0674438,
2.2215,0.0697327,
2.222,0.0550842,
2.2225,0.0253296,
2.223,0.00762939,
2.2235,0.00442505,
2.224,0.00244141,
2.2245,-0.00228882,
2.225,-0.018158,
2.2255,-0.0439453,
2.226,-0.0706482,
2.2265,-0.0895691,
2.227,-0.0837708,
2.2275,-0.071106,
2.228,-0.0814819,
2.2285,-0.0938416,
2.229,-0.0863647,
2.2295,-0.0814819,
2.23,-0.0865173,
2.2305,-0.0888062,
2.231,-0.0970459,
2.2315,-0.115509,
2.232,-0.126495,
2.2325,-0.10788,
2.233,-0.0688171,
2.2335,-0.0450134,
2.234,-0.0357056,
2.2345,-0.0318909,
2.235,-0.0379944,
2.2355,-0.0456238,
2.236,-0.0340271,
2.2365,-0.0180054,
2.237,-0.027771,
2.2375,-0.0463867,
2.238,-0.0476074,
2.2385,-0.0323486,
2.239,-0.0184631,
2.2395,-0.0270081,
2.24,-0.06073,
2.2405,-0.0843811,
2.241,-0.0668335,
2.2415,-0.0169373,
2.242,0.0360107,
2.2425,0.0769043,
2.243,0.125427,
2.2435,0.176239,
2.244,0.182495,
2.2445,0.148468,
2.245,0.107422,
2.2455,0.0526428,
2.246,-0.00701904,
2.2465,-0.0492859,
2.247,-0.0643921,
2.2475,-0.0532532,
2.248,-0.019989,
2.2485,0.0154114,
2.249,0.0302124,
2.2495,0.0363159,
2.25,0.0334167,
2.2505,-0.00671387,
2.251,-0.0639343,
2.2515,-0.0967407,
2.252,-0.113525,
2.2525,-0.122375,
2.253,-0.091095,
2.2535,-0.00457764,
2.254,0.0799561,
2.2545,0.08255,
2.255,-0.000457764,
2.2555,-0.0891113,
2.256,-0.105286,
2.2565,-0.0637817,
2.257,-0.0357056,
2.2575,-0.052948,
2.258,-0.0935364,
2.2585,-0.132904,
2.259,-0.167542,
2.2595,-0.218353,
2.26,-0.296936,
2.2605,-0.389252,
2.261,-0.455475,
2.2615,-0.467987,
2.262,-0.418549,
2.2625,-0.294342,
2.263,-0.0802612,
2.2635,0.198059,
2.264,0.424042,
2.2645,0.493469,
2.265,0.426636,
2.2655,0.29953,
2.266,0.16037,
2.2665,0.032196,
2.267,-0.0650024,
2.2675,-0.112,
2.268,-0.106659,
2.2685,-0.0752258,
2.269,-0.0691223,
2.2695,-0.101624,
2.27,-0.147247,
2.2705,-0.185852,
2.271,-0.208893,
2.2715,-0.201874,
2.272,-0.159302,
2.2725,-0.105286,
2.273,-0.0605774,
2.2735,-0.0244141,
2.274,0.0219727,
2.2745,0.0901794,
2.275,0.144196,
2.2755,0.147247,
2.276,0.119019,
2.2765,0.101471,
2.277,0.105438,
2.2775,0.102692,
2.278,0.0721741,
2.2785,0.0326538,
2.279,0.00350952,
2.2795,-0.0154114,
2.28,-0.0260925,
2.2805,-0.0259399,
2.281,-0.0164795,
2.2815,0.0050354,
2.282,0.0317383,
2.2825,0.0468445,
2.283,0.0421143,
2.2835,0.0561523,
2.284,0.104523,
2.2845,0.128784,
2.285,0.098114,
2.2855,0.0605774,
2.286,0.058136,
2.2865,0.0834656,
2.287,0.101776,
2.2875,0.0828552,
2.288,0.0392151,
2.2885,0.0178528,
2.289,0.0376892,
2.2895,0.0657654,
2.29,0.072937,
2.2905,0.043335,
2.291,-0.0189209,
2.2915,-0.0715637,
2.292,-0.0614929,
2.2925,0.00534058,
2.293,0.0657654,
2.2935,0.0915527,
2.294,0.11322,
2.2945,0.179596,
2.295,0.289917,
2.2955,0.368042,
2.296,0.365143,
2.2965,0.316772,
2.297,0.256195,
2.2975,0.203857,
2.298,0.174866,
2.2985,0.170441,
2.299,0.178223,
2.2995,0.176086,
2.3,0.137634,
2.3005,0.0708008,
2.301,0.00549316,
2.3015,-0.0437927,
2.302,-0.0737,
2.3025,-0.0743103,
2.303,-0.0334167,
2.3035,0.0260925,
2.304,0.0520325,
2.3045,0.0511169,
2.305,0.0617981,
2.3055,0.100098,
2.306,0.158997,
2.3065,0.196381,
2.307,0.168762,
2.3075,0.100098,
2.308,0.0517273,
2.3085,0.0396729,
2.309,0.0234985,
2.3095,-0.018158,
2.31,-0.0617981,
2.3105,-0.0773621,
2.311,-0.0798035,
2.3115,-0.106354,
2.312,-0.143127,
2.3125,-0.157318,
2.313,-0.124207,
2.3135,-0.04776,
2.314,0.0192261,
2.3145,0.0439453,
2.315,0.0306702,
2.3155,-0.00732422,
2.316,-0.0511169,
2.3165,-0.0788879,
2.317,-0.0741577,
2.3175,-0.0350952,
2.318,0.019989,
2.3185,0.0611877,
2.319,0.0775146,
2.3195,0.0776672,
2.32,0.0784302,
2.3205,0.0776672,
2.321,0.0672913,
2.3215,0.0505066,
2.322,0.030365,
2.3225,0.0244141,
2.323,0.0325012,
2.3235,0.0296021,
2.324,0.00305176,
2.3245,-0.0447083,
2.325,-0.0897217,
2.3255,-0.116119,
2.326,-0.139618,
2.3265,-0.155945,
2.327,-0.123291,
2.3275,-0.0471497,
2.328,0.0309753,
2.3285,0.0985718,
2.329,0.146179,
2.3295,0.154114,
2.33,0.135345,
2.3305,0.132446,
2.331,0.15152,
2.3315,0.148468,
2.332,0.0990295,
2.3325,0.0379944,
2.333,0.0088501,
2.3335,0.0224304,
2.334,0.0375366,
2.3345,0.0114441,
2.335,-0.0352478,
2.3355,-0.0704956,
2.336,-0.0921631,
2.3365,-0.0994873,
2.337,-0.0862122,
2.3375,-0.0694275,
2.338,-0.0624084,
2.3385,-0.0648499,
2.339,-0.0686646,
2.3395,-0.072937,
2.34,-0.0796509,
2.3405,-0.083313,
2.341,-0.0856018,
2.3415,-0.100403,
2.342,-0.128021,
2.3425,-0.152283,
2.343,-0.170593,
2.3435,-0.197144,
2.344,-0.222931,
2.3445,-0.211029,
2.345,-0.148773,
2.3455,-0.0642395,
2.346,-0.00289917,
2.3465,0.0050354,
2.347,-0.0410461,
2.3475,-0.0990295,
2.348,-0.119324,
2.3485,-0.106201,
2.349,-0.0942993,
2.3495,-0.0942993,
2.35,-0.093689,
2.3505,-0.0894165,
2.351,-0.0892639,
2.3515,-0.101624,
2.352,-0.137329,
2.3525,-0.175171,
2.353,-0.165863,
2.3535,-0.119934,
2.354,-0.0888062,
2.3545,-0.0628662,
2.355,-0.0119019,
2.3555,0.0550842,
2.356,0.0946045,
2.3565,0.0671387,
2.357,-0.0166321,
2.3575,-0.110474,
2.358,-0.189056,
2.3585,-0.248413,
2.359,-0.284729,
2.3595,-0.28717,
2.36,-0.245209,
2.3605,-0.157166,
2.361,-0.0466919,
2.3615,0.0650024,
2.362,0.167389,
2.3625,0.233612,
2.363,0.24292,
2.3635,0.219574,
2.364,0.172729,
2.3645,0.0987244,
2.365,0.0338745,
2.3655,0.00411987,
2.366,0.00167847,
2.3665,0.020752,
2.367,0.06073,
2.3675,0.103302,
2.368,0.113678,
2.3685,0.0839233,
2.369,0.0364685,
2.3695,-0.0167847,
2.37,-0.0650024,
2.3705,-0.0892639,
2.371,-0.0880432,
2.3715,-0.0794983,
2.372,-0.0665283,
2.3725,-0.0450134,
2.373,-0.0341797,
2.3735,-0.0468445,
2.374,-0.0534058,
2.3745,-0.0325012,
2.375,-0.0239563,
2.3755,-0.0616455,
2.376,-0.113068,
2.3765,-0.142365,
2.377,-0.139923,
2.3775,-0.119781,
2.378,-0.106201,
2.3785,-0.092926,
2.379,-0.0738525,
2.3795,-0.0492859,
2.38,-0.0166321,
2.3805,0.0317383,
2.381,0.0782776,
2.3815,0.10025,
2.382,0.106201,
2.3825,0.0978088,
2.383,0.0610352,
2.3835,0.017395,
2.384,-0.0138855,
2.3845,-0.037384,
2.385,-0.0517273,
2.3855,-0.0578308,
2.386,-0.0720215,
2.3865,-0.106964,
2.387,-0.172882,
2.3875,-0.256653,
2.388,-0.327148,
2.3885,-0.371094,
2.389,-0.384369,
2.3895,-0.357208,
2.39,-0.300751,
2.3905,-0.202179,
2.391,0.00762939,
2.3915,0.295258,
2.392,0.518188,
2.3925,0.59433,
2.393,0.523224,
2.3935,0.372467,
2.394,0.238647,
2.3945,0.146484,
2.395,0.0837708,
2.3955,0.0567627,
2.396,0.0502014,
2.3965,0.039978,
2.397,0.0366211,
2.3975,0.0387573,
2.398,0.0317383,
2.3985,0.015564,
2.399,-0.00396729,
2.3995,-0.0219727,
2.4,-0.0260925,
2.4005,-0.0205994,
2.401,-0.0204468,
2.4015,-0.0183105,
2.402,-0.00656128,
2.4025,0.00198364,
2.403,0.00869751,
2.4035,0.0434875,
2.404,0.1091,
2.4045,0.154266,
2.405,0.140839,
2.4055,0.0843811,
2.406,0.0306702,
2.4065,-0.00396729,
2.407,-0.0248718,
2.4075,-0.0297546,
2.408,-0.0292969,
2.4085,-0.0437927,
2.409,-0.0749207,
2.4095,-0.0982666,
2.41,-0.0953674,
2.4105,-0.0959778,
2.411,-0.140686,
2.4115,-0.221558,
2.412,-0.274506,
2.4125,-0.254059,
2.413,-0.17746,
2.4135,-0.083313,
2.414,-0.0190735,
2.4145,-0.0189209,
2.415,-0.0296021,
2.4155,0.0257874,
2.416,0.13504,
2.4165,0.228271,
2.417,0.280609,
2.4175,0.305786,
2.418,0.333252,
2.4185,0.359192,
2.419,0.350189,
2.4195,0.296021,
2.42,0.20462,
2.4205,0.114136,
2.421,0.0721741,
2.4215,0.0743103,
2.422,0.0746155,
2.4225,0.0523376,
2.423,0.0244141,
2.4235,0.00839233,
2.424,0.00900269,
2.4245,0.00930786,
2.425,-0.00411987,
2.4255,-0.0228882,
2.426,-0.0378418,
2.4265,-0.0491333,
2.427,-0.0523376,
2.4275,-0.0497437,
2.428,-0.0508118,
2.4285,-0.0634766,
2.429,-0.0770569,
2.4295,-0.0834656,
2.43,-0.0915527,
2.4305,-0.116577,
2.431,-0.152588,
2.4315,-0.171204,
2.432,-0.171661,
2.4325,-0.173798,
2.433,-0.175018,
2.4335,-0.171204,
2.434,-0.132904,
2.4345,-0.0273132,
2.435,0.116882,
2.4355,0.229034,
2.436,0.281219,
2.4365,0.292969,
2.437,0.263214,
2.4375,0.196228,
2.438,0.127258,
2.4385,0.0750732,
2.439,0.0210571,
2.4395,-0.0445557,
2.44,-0.0959778,
2.4405,-0.124207,
2.441,-0.121155,
2.4415,-0.0968933,
2.442,-0.0967407,
2.4425,-0.132904,
2.443,-0.200653,
2.4435,-0.287476,
2.444,-0.341339,
2.4445,-0.309448,
2.445,-0.219269,
2.4455,-0.144043,
2.446,-0.0881958,
2.4465,0.0205994,
2.447,0.195618,
2.4475,0.368195,
2.448,0.48172,
2.4485,0.511475,
2.449,0.422516,
2.4495,0.233612,
2.45,0.0175476,
2.4505,-0.158691,
2.451,-0.249939,
2.4515,-0.26123,
2.452,-0.213013,
2.4525,-0.102386,
2.453,0.0352478,
2.4535,0.152893,
2.454,0.237274,
2.4545,0.276642,
2.455,0.26001,
2.4555,0.188904,
2.456,0.10437,
2.4565,0.0517273,
2.457,0.0308228,
2.4575,0.0215149,
2.458,0.0117493,
2.4585,-0.0126648,
2.459,-0.0431824,
2.4595,-0.0541687,
2.46,-0.0442505,
2.4605,-0.0376892,
2.461,-0.0404358,
2.4615,-0.0471497,
2.462,-0.0544739,
2.4625,-0.062561,
2.463,-0.0764465,
2.4635,-0.100861,
2.464,-0.124512,
2.4645,-0.127258,
2.465,-0.105133,
2.4655,-0.0794983,
2.466,-0.0717163,
2.4665,-0.0772095,
2.467,-0.0856018,
2.4675,-0.0938416,
2.468,-0.0967407,
2.4685,-0.0767517,
2.469,-0.0296021,
2.4695,0.00686646,
2.47,-0.00457764,
2.4705,-0.0482178,
2.471,-0.0868225,
2.4715,-0.125275,
2.472,-0.184631,
2.4725,-0.247803,
2.473,-0.272522,
2.4735,-0.2388,
2.474,-0.164795,
2.4745,-0.0744629,
2.475,0.00900269,
2.4755,0.0668335,
2.476,0.0750732,
2.4765,0.0292969,
2.477,-0.0315857,
2.4775,-0.0622559,
2.478,-0.055542,
2.4785,-0.010376,
2.479,0.0889587,
2.4795,0.19928,
2.48,0.241089,
2.4805,0.185394,
2.481,0.0675964,
2.4815,-0.0241089,
2.482,-0.0335693,
2.4825,0.0187683,
2.483,0.0920105,
2.4835,0.159454,
2.484,0.17807,
2.4845,0.109558,
2.485,-0.00579834,
2.4855,-0.098877,
2.486,-0.150452,
2.4865,-0.169678,
2.487,-0.1474,
2.4875,-0.0662231,
2.488,0.075531,
2.4885,0.239868,
2.489,0.353088,
2.4895,0.36499,
2.49,0.293579,
2.4905,0.205841,
2.491,0.154877,
2.4915,0.138397,
2.492,0.11734,
2.4925,0.0622559,
2.493,-0.0193787,
2.4935,-0.0923157,
2.494,-0.120392,
2.4945,-0.106812,
2.495,-0.0959778,
2.4955,-0.100555,
2.496,-0.0868225,
2.4965,-0.0595093,
2.497,-0.0463867,
2.4975,-0.0520325,
2.498,-0.0564575,
2.4985,-0.0506592,
2.499,-0.0436401,
2.4995,-0.0460815,
2.5,-0.0570679,
2.5005,-0.0674438,
2.501,-0.0634766,
2.5015,-0.0386047,
2.502,-0.0175476,
2.5025,-0.0189209,
2.503,-0.0260925,
2.5035,-0.0177002,
2.504,-0.00701904,
2.5045,-0.0108337,
2.505,-0.0267029,
2.5055,-0.0398254,
2.506,-0.0462341,
2.5065,-0.0485229,
2.507,-0.0466919,
2.5075,-0.0492859,
2.508,-0.0643921,
2.5085,-0.0794983,
2.509,-0.0946045,
2.5095,-0.106049,
2.51,-0.0982666,
2.5105,-0.0758362,
2.511,-0.0559998,
2.5115,-0.0340271,
2.512,0.00198364,
2.5125,0.0331116,
2.513,0.0363159,
2.5135,0.0404358,
2.514,0.0637817,
2.5145,0.0706482,
2.515,0.0436401,
2.5155,0.012207,
2.516,-0.00991821,
2.5165,-0.0198364,
2.517,0.00350952,
2.5175,0.043335,
2.518,0.0402832,
2.5185,-0.0192261,
2.519,-0.0848389,
2.5195,-0.129395,
2.52,-0.160828,
2.5205,-0.176697,
2.521,-0.169678,
2.5215,-0.128479,
2.522,-0.0508118,
2.5225,0.0411987,
2.523,0.109558,
2.5235,0.106201,
2.524,0.0306702,
2.5245,-0.0567627,
2.525,-0.0993347,
2.5255,-0.114288,
2.526,-0.135651,
2.5265,-0.121765,
2.527,-0.0263977,
2.5275,0.0852966,
2.528,0.11322,
2.5285,0.0616455,
2.529,0.0177002,
2.5295,0.0444031,
2.53,0.162048,
2.5305,0.312195,
2.531,0.434418,
2.5315,0.496063,
2.532,0.453949,
2.5325,0.307312,
2.533,0.138855,
2.5335,0.0280762,
2.534,-0.0234985,
2.5345,-0.0404358,
2.535,-0.0450134,
2.5355,-0.0523376,
2.536,-0.0642395,
2.5365,-0.0738525,
2.537,-0.0715637,
2.5375,-0.0535583,
2.538,-0.0302124,
2.5385,-0.00213623,
2.539,0.0228882,
2.5395,0.018158,
2.54,-0.017395,
2.5405,-0.0466919,
2.541,-0.0556946,
2.5415,-0.0608826,
2.542,-0.0717163,
2.5425,-0.0820923,
2.543,-0.0862122,
2.5435,-0.0852966,
2.544,-0.0888062,
2.5445,-0.0866699,
2.545,-0.0592041,
2.5455,-0.0260925,
2.546,-0.0340271,
2.5465,-0.0744629,
2.547,-0.109863,
2.5475,-0.125732,
2.548,-0.134888,
2.5485,-0.142212,
2.549,-0.141907,
2.5495,-0.132446,
2.55,-0.110474,
2.5505,-0.0865173,
2.551,-0.0875854,
2.5515,-0.112762,
2.552,-0.141296,
2.5525,-0.191956,
2.553,-0.26123,
2.5535,-0.287781,
2.554,-0.249939,
2.5545,-0.19104,
2.555,-0.123138,
2.5555,-0.00305176,
2.556,0.197296,
2.5565,0.414581,
2.557,0.531311,
2.5575,0.548859,
2.558,0.523376,
2.5585,0.424042,
2.559,0.274658,
2.5595,0.12619,
2.56,0.00732422,
2.5605,-0.0686646,
2.561,-0.0906372,
2.5615,-0.0357056,
2.562,0.065155,
2.5625,0.12619,
2.563,0.128479,
2.5635,0.0968933,
2.564,0.0508118,
2.5645,0.0134277,
2.565,-0.0187683,
2.5655,-0.0596619,
2.566,-0.0906372,
2.5665,-0.078125,
2.567,-0.0482178,
2.5675,-0.0572205,
2.568,-0.0900269,
2.5685,-0.0892639,
2.569,-0.0656128,
2.5695,-0.0535583,
2.57,-0.0308228,
2.5705,0.00900269,
2.571,0.0175476,
2.5715,-0.0152588,
2.572,-0.042572,
2.5725,-0.0402832,
2.573,-0.0315857,
2.5735,-0.0267029,
2.574,-0.0192261,
2.5745,-0.010376,
2.575,0.00183105,
2.5755,0.0276184,
2.576,0.0553894,
2.5765,0.0430298,
2.577,-0.00686646,
2.5775,-0.040741,
2.578,-0.0486755,
2.5785,-0.0637817,
2.579,-0.0938416,
2.5795,-0.103149,
2.58,-0.0762939,
2.5805,-0.0447083,
2.581,-0.0495911,
2.5815,-0.0828552,
2.582,-0.102081,
2.5825,-0.0839233,
2.583,-0.0382996,
2.5835,-0.0038147,
2.584,0.0126648,
2.5845,0.0485229,
2.585,0.107117,
2.5855,0.143127,
2.586,0.131226,
2.5865,0.101776,
2.587,0.0886536,
2.5875,0.0923157,
2.588,0.0938416,
2.5885,0.0628662,
2.589,-0.00701904,
2.5895,-0.0695801,
2.59,-0.0839233,
2.5905,-0.0588989,
2.591,-0.00244141,
2.5915,0.0752258,
2.592,0.140381,
2.5925,0.151825,
2.593,0.0976563,
2.5935,0.00793457,
2.594,-0.0669861,
2.5945,-0.110626,
2.595,-0.13092,
2.5955,-0.133667,
2.596,-0.136871,
2.5965,-0.158539,
2.597,-0.1651,
2.5975,-0.123749,
2.598,-0.0538635,
2.5985,0.0280762,
2.599,0.116272,
2.5995,0.17807,
2.6,0.192413,
2.6005,0.181427,
2.601,0.162048,
2.6015,0.113983,
2.602,0.0338745,
2.6025,-0.0453186,
2.603,-0.12085,
2.6035,-0.201416,
2.604,-0.256653,
2.6045,-0.250702,
2.605,-0.184021,
2.6055,-0.0762939,
2.606,0.0466919,
2.6065,0.13443,
2.607,0.163574,
2.6075,0.133209,
2.608,0.0662231,
2.6085,-0.000457764,
2.609,-0.0349426,
2.6095,-0.0218201,
2.61,0.0392151,
2.6105,0.134735,
2.611,0.230103,
2.6115,0.265503,
2.612,0.205231,
2.6125,0.0979614,
2.613,0.0326538,
2.6135,0.0231934,
2.614,0.0218201,
2.6145,0.00335693,
2.615,-0.0184631,
2.6155,-0.0193787,
2.616,-0.0108337,
2.6165,-0.0128174,
2.617,-0.0253296,
2.6175,-0.0434875,
2.618,-0.0598145,
2.6185,-0.0575256,
2.619,-0.0335693,
2.6195,0.00350952,
2.62,0.0262451,
2.6205,0.0105286,
2.621,-0.0260925,
2.6215,-0.0532532,
2.622,-0.0624084,
2.6225,-0.0604248,
2.623,-0.0567627,
2.6235,-0.0474548,
2.624,-0.030365,
2.6245,-0.0204468,
2.625,-0.0204468,
2.6255,-0.0279236,
2.626,-0.0585938,
2.6265,-0.104675,
2.627,-0.13092,
2.6275,-0.130157,
2.628,-0.105896,
2.6285,-0.0485229,
2.629,0.0364685,
2.6295,0.125275,
2.63,0.184326,
2.6305,0.183105,
2.631,0.12085,
2.6315,0.0318909,
2.632,-0.0566101,
2.6325,-0.124207,
2.633,-0.138855,
2.6335,-0.0856018,
2.634,0.00198364,
2.6345,0.0642395,
2.635,0.0747681,
2.6355,0.0346375,
2.636,-0.0479126,
2.6365,-0.128021,
2.637,-0.149384,
2.6375,-0.117035,
2.638,-0.0775146,
2.6385,-0.0628662,
2.639,-0.0630188,
2.6395,-0.0466919,
2.64,-0.0198364,
2.6405,-0.0149536,
2.641,-0.0212097,
2.6415,-0.00335693,
2.642,0.0428772,
2.6425,0.0799561,
2.643,0.0669861,
2.6435,0.0274658,
2.644,-0.00183105,
2.6445,-0.0062561,
2.645,0.0050354,
2.6455,0.0222778,
2.646,0.0402832,
2.6465,0.0274658,
2.647,-0.0178528,
2.6475,-0.0401306,
2.648,0.000305176,
2.6485,0.0747681,
2.649,0.111847,
2.6495,0.059967,
2.65,-0.0680542,
2.6505,-0.208282,
2.651,-0.289764,
2.6515,-0.309906,
2.652,-0.299072,
2.6525,-0.261078,
2.653,-0.139313,
2.6535,0.115509,
2.654,0.404205,
2.6545,0.579376,
2.655,0.610504,
2.6555,0.548859,
2.656,0.435028,
2.6565,0.293732,
2.657,0.170288,
2.6575,0.0888062,
2.658,0.0366211,
2.6585,0.0167847,
2.659,0.0196838,
2.6595,0.0140381,
2.66,-0.0154114,
2.6605,-0.0535583,
2.661,-0.0897217,
2.6615,-0.0952148,
2.662,-0.0534058,
2.6625,-0.0151062,
2.663,-0.0236511,
2.6635,-0.0730896,
2.664,-0.124512,
2.6645,-0.145874,
2.665,-0.136261,
2.6655,-0.110779,
2.666,-0.0970459,
2.6665,-0.101776,
2.667,-0.104218,
2.6675,-0.10376,
2.668,-0.115814,
2.6685,-0.144653,
2.669,-0.177307,
2.6695,-0.19104,
2.67,-0.191956,
2.6705,-0.181274,
2.671,-0.168304,
2.6715,-0.176239,
2.672,-0.190125,
2.6725,-0.183716,
2.673,-0.146332,
2.6735,-0.0720215,
2.674,0.0125122,
2.6745,0.0773621,
2.675,0.124817,
2.6755,0.130157,
2.676,0.0785828,
2.6765,0.0161743,
2.677,-0.0177002,
2.6775,-0.0250244,
2.678,-0.0271606,
2.6785,-0.0215149,
2.679,0.0012207,
2.6795,0.0236511,
2.68,0.0518799,
2.6805,0.096283,
2.681,0.0964355,
2.6815,0.0257874,
2.682,-0.0404358,
2.6825,-0.063324,
2.683,-0.0715637,
2.6835,-0.0927734,
2.684,-0.0871277,
2.6845,-0.00564575,
2.685,0.125122,
2.6855,0.267792,
2.686,0.395966,
2.6865,0.471497,
2.687,0.482635,
2.6875,0.409088,
2.688,0.254059,
2.6885,0.098877,
2.689,0.0291443,
2.6895,0.0218201,
2.69,0.00961304,
2.6905,-0.0282288,
2.691,-0.0592041,
2.6915,-0.0376892,
2.692,0.0344849,
2.6925,0.107727,
2.693,0.145264,
2.6935,0.137024,
2.694,0.0805664,
2.6945,-0.00106812,
2.695,-0.0593567,
2.6955,-0.0682068,
2.696,-0.0520325,
2.6965,-0.0509644,
2.697,-0.0616455,
2.6975,-0.0660706,
2.698,-0.070343,
2.6985,-0.0804138,
2.699,-0.0794983,
2.6995,-0.0534058,
2.7,-0.027771,
2.7005,-0.0187683,
2.701,-0.0233459,
2.7015,-0.0357056,
2.702,-0.0514221,
2.7025,-0.070343,
2.703,-0.0811768,
2.7035,-0.0819397,
2.704,-0.0837708,
2.7045,-0.0881958,
2.705,-0.0909424,
2.7055,-0.0961304,
2.706,-0.0964355,
2.7065,-0.0613403,
2.707,0.00244141,
2.7075,0.0361633,
2.708,0.0190735,
2.7085,-0.030365,
2.709,-0.083313,
2.7095,-0.116882,
2.71,-0.12619,
2.7105,-0.11795,
2.711,-0.101013,
2.7115,-0.092926,
2.712,-0.0900269,
2.7125,-0.0650024,
2.713,-0.0306702,
2.7135,-0.0196838,
2.714,-0.0286865,
2.7145,-0.0227356,
2.715,0.00137329,
2.7155,0.0114441,
2.716,-0.0140381,
2.7165,-0.0694275,
2.717,-0.126495,
2.7175,-0.163269,
2.718,-0.179749,
2.7185,-0.183716,
2.719,-0.157928,
2.7195,-0.114136,
2.72,-0.0927734,
2.7205,-0.0994873,
2.721,-0.115509,
2.7215,-0.122223,
2.722,-0.105591,
2.7225,-0.0224304,
2.723,0.179138,
2.7235,0.41275,
2.724,0.549469,
2.7245,0.54718,
2.725,0.474548,
2.7255,0.380859,
2.726,0.27359,
2.7265,0.167236,
2.727,0.0883484,
2.7275,0.0404358,
2.728,0.0132751,
2.7285,-0.00976563,
2.729,-0.0559998,
2.7295,-0.10498,
2.73,-0.120544,
2.7305,-0.110779,
2.731,-0.101776,
2.7315,-0.0976563,
2.732,-0.0927734,
2.7325,-0.0840759,
2.733,-0.0691223,
2.7335,-0.0454712,
2.734,-0.00411987,
2.7345,0.0617981,
2.735,0.119781,
2.7355,0.120544,
2.736,0.0556946,
2.7365,-0.0274658,
2.737,-0.0796509,
2.7375,-0.0814819,
2.738,-0.0445557,
2.7385,0.022583,
2.739,0.0802612,
2.7395,0.090332,
2.74,0.0694275,
2.7405,0.0579834,
2.741,0.0361633,
2.7415,-0.0437927,
2.742,-0.134888,
2.7425,-0.15152,
2.743,-0.0942993,
2.7435,-0.0302124,
2.744,-0.0062561,
2.7445,-0.00427246,
2.745,0.0279236,
2.7455,0.0671387,
2.746,0.0531006,
2.7465,-0.0187683,
2.747,-0.120239,
2.7475,-0.209961,
2.748,-0.26535,
2.7485,-0.29892,
2.749,-0.336456,
2.7495,-0.370178,
2.75,-0.384521,
2.7505,-0.366516,
2.751,-0.272675,
2.7515,-0.0852966,
2.752,0.12558,
2.7525,0.28595,
2.753,0.368195,
2.7535,0.384216,
2.754,0.358124,
2.7545,0.320892,
2.755,0.286713,
2.7555,0.23941,
2.756,0.179901,
2.7565,0.122986,
2.757,0.0558472,
2.7575,-0.00167847,
2.758,-0.0196838,
2.7585,-0.0276184,
2.759,-0.0340271,
2.7595,-0.00701904,
2.76,0.0544739,
2.7605,0.126495,
2.761,0.15686,
2.7615,0.104065,
2.762,0.00762939,
2.7625,-0.0663757,
2.763,-0.090332,
2.7635,-0.0813293,
2.764,-0.0704956,
2.7645,-0.0743103,
2.765,-0.0836182,
2.7655,-0.085907,
2.766,-0.071106,
2.7665,-0.0506592,
2.767,-0.0314331,
2.7675,-0.0190735,
2.768,-0.0138855,
2.7685,-0.00488281,
2.769,0.00762939,
2.7695,0.0196838,
2.77,0.0263977,
2.7705,0.012207,
2.771,-0.0224304,
2.7715,-0.058136,
2.772,-0.0866699,
2.7725,-0.109558,
2.773,-0.107422,
2.7735,-0.0750732,
2.774,-0.0415039,
2.7745,-0.00717163,
2.775,0.0534058,
2.7755,0.119171,
2.776,0.152893,
2.7765,0.13916,
2.777,0.0764465,
2.7775,-0.00701904,
2.778,-0.0827026,
2.7785,-0.160065,
2.779,-0.238495,
2.7795,-0.291748,
2.78,-0.304413,
2.7805,-0.264587,
2.781,-0.193634,
2.7815,-0.122223,
2.782,-0.0393677,
2.7825,0.0784302,
2.783,0.213013,
2.7835,0.331879,
2.784,0.407257,
2.7845,0.391846,
2.785,0.309296,
2.7855,0.231628,
2.786,0.173645,
2.7865,0.130157,
2.787,0.0979614,
2.7875,0.0648499,
2.788,0.0344849,
2.7885,0.0109863,
2.789,-0.00808716,
2.7895,-0.0151062,
2.79,-0.00228882,
2.7905,0.0204468,
2.791,0.0256348,
2.7915,0.00640869,
2.792,-0.0257874,
2.7925,-0.057373,
2.793,-0.0775146,
2.7935,-0.0866699,
2.794,-0.0921631,
2.7945,-0.0926208,
2.795,-0.0872803,
2.7955,-0.0523376,
2.796,0.00564575,
2.7965,0.027771,
2.797,0.00946045,
2.7975,-0.010376,
2.798,-0.00915527,
2.7985,0.0186157,
2.799,0.0535583,
2.7995,0.0579834,
2.8,0.0260925,
2.8005,-0.0135803,
2.801,-0.042572,
2.8015,-0.0598145,
2.802,-0.0483704,
2.8025,-0.0134277,
2.803,0.0105286,
2.8035,0.0115967,
2.804,0.00534058,
2.8045,-0.00167847,
2.805,-0.0180054,
2.8055,-0.0531006,
2.806,-0.0956726,
2.8065,-0.134583,
2.807,-0.155487,
2.8075,-0.145569,
2.808,-0.102844,
2.8085,-0.0517273,
2.809,-0.0369263,
2.8095,-0.0738525,
2.81,-0.128632,
2.8105,-0.166016,
2.811,-0.160828,
2.8115,-0.0987244,
2.812,-0.0263977,
2.8125,0.0111389,
2.813,0.0231934,
2.8135,0.0408936,
2.814,0.0561523,
2.8145,0.0660706,
2.815,0.116272,
2.8155,0.182648,
2.816,0.180359,
2.8165,0.115051,
2.817,0.0556946,
2.8175,0.022583,
2.818,-0.0157166,
2.8185,-0.0669861,
2.819,-0.124207,
2.8195,-0.165405,
2.82,-0.169525,
2.8205,-0.130615,
2.821,-0.0662231,
2.8215,-0.0404358,
2.822,-0.0692749,
2.8225,-0.0738525,
2.823,-0.0117493,
2.8235,0.0605774,
2.824,0.085144,
2.8245,0.071106,
2.825,0.0437927,
2.8255,0.00137329,
2.826,-0.0335693,
2.8265,-0.000915527,
2.827,0.103149,
2.8275,0.198059,
2.828,0.229034,
2.8285,0.205536,
2.829,0.15976,
2.8295,0.121765,
2.83,0.0961304,
2.8305,0.0712585,
2.831,0.0448608,
2.8315,0.0259399,
2.832,0.018158,
2.8325,0.0285339,
2.833,0.0468445,
2.8335,0.0431824,
2.834,0.0221252,
2.8345,0.018158,
2.835,0.0236511,
2.8355,0.00732422,
2.836,-0.0178528,
2.8365,-0.0195313,
2.837,-0.0131226,
2.8375,-0.0283813,
2.838,-0.0614929,
2.8385,-0.101166,
2.839,-0.142212,
2.8395,-0.188446,
2.84,-0.237274,
2.8405,-0.25238,
2.841,-0.183411,
2.8415,-0.0787354,
2.842,-0.0598145,
2.8425,-0.146027,
2.843,-0.256958,
2.8435,-0.329895,
2.844,-0.35614,
2.8445,-0.335999,
2.845,-0.249939,
2.8455,-0.11322,
2.846,0.0215149,
2.8465,0.178986,
2.847,0.405884,
2.8475,0.59021,
2.848,0.583496,
2.8485,0.431824,
2.849,0.278015,
2.8495,0.193024,
2.85,0.133057,
2.8505,0.0564575,
2.851,0.00442505,
2.8515,0.0195313,
2.852,0.0743103,
2.8525,0.0952148,
2.853,0.0616455,
2.8535,0.0350952,
2.854,0.0311279,
2.8545,-0.00335693,
2.855,-0.0640869,
2.8555,-0.0918579,
2.856,-0.0721741,
2.8565,-0.00228882,
2.857,0.10376,
2.8575,0.166321,
2.858,0.124054,
2.8585,0.0253296,
2.859,-0.0387573,
2.8595,-0.0382996,
2.86,-0.0141907,
2.8605,-0.012207,
2.861,-0.038147,
2.8615,-0.057373,
2.862,-0.0604248,
2.8625,-0.0624084,
2.863,-0.0578308,
2.8635,-0.0270081,
2.864,0.0297546,
2.8645,0.0566101,
2.865,0.00900269,
2.8655,-0.0648499,
2.866,-0.0920105,
2.8665,-0.0805664,
2.867,-0.0778198,
2.8675,-0.0883484,
2.868,-0.078125,
2.8685,-0.0585938,
2.869,-0.0558472,
2.8695,-0.0521851,
2.87,-0.0341797,
2.8705,-0.0012207,
2.871,0.0466919,
2.8715,0.0798035,
2.872,0.0546265,
2.8725,-0.00793457,
2.873,-0.0401306,
2.8735,-0.0187683,
2.874,0.00839233,
2.8745,-0.00335693,
2.875,-0.0285339,
2.8755,-0.0140381,
2.876,0.020752,
2.8765,0.0515747,
2.877,0.071106,
2.8775,0.0505066,
2.878,-0.0126648,
2.8785,-0.0743103,
2.879,-0.0816345,
2.8795,-0.0300598,
2.88,0.0213623,
2.8805,0.0444031,
2.881,0.0498962,
2.8815,0.045166,
2.882,0.0184631,
2.8825,-0.0415039,
2.883,-0.106506,
2.8835,-0.116425,
2.884,-0.0712585,
2.8845,-0.0178528,
2.885,0.0375366,
2.8855,0.0810242,
2.886,0.0512695,
2.8865,-0.065918,
2.887,-0.16571,
2.8875,-0.148163,
2.888,-0.0721741,
2.8885,-0.0282288,
2.889,-0.00198364,
2.8895,0.0205994,
2.89,0.00137329,
2.8905,-0.059967,
2.891,-0.0982666,
2.8915,-0.0933838,
2.892,-0.0839233,
2.8925,-0.0697327,
2.893,-0.0263977,
2.8935,0.0285339,
2.894,0.04776,
2.8945,0.0187683,
2.895,-0.0306702,
2.8955,-0.072937,
2.896,-0.0950623,
2.8965,-0.0839233,
2.897,-0.0680542,
2.8975,-0.0660706,
2.898,-0.0428772,
2.8985,-0.00534058,
2.899,-0.00167847,
2.8995,-0.0117493,
2.9,0.000152588,
2.9005,0.0111389,
2.901,0.0109863,
2.9015,0.0294495,
2.902,0.0666809,
2.9025,0.0749207,
2.903,0.0502014,
2.9035,0.0344849,
2.904,0.0213623,
2.9045,-0.00640869,
2.905,-0.0267029,
2.9055,-0.0297546,
2.906,-0.0376892,
2.9065,-0.0480652,
2.907,-0.0268555,
2.9075,0.0221252,
2.908,0.0546265,
2.9085,0.0585938,
2.909,0.0627136,
2.9095,0.0958252,
2.91,0.114441,
2.9105,0.0790405,
2.911,0.0132751,
2.9115,-0.0253296,
2.912,-0.0140381,
2.9125,0.0231934,
2.913,0.0544739,
2.9135,0.0726318,
2.914,0.0740051,
2.9145,0.0498962,
2.915,0.0138855,
2.9155,-0.018158,
2.916,-0.042572,
2.9165,-0.0631714,
2.917,-0.0778198,
2.9175,-0.0933838,
2.918,-0.106354,
2.9185,-0.105133,
2.919,-0.0941467,
2.9195,-0.0915527,
2.92,-0.0880432,
2.9205,-0.0538635,
2.921,0.0151062,
2.9215,0.0816345,
2.922,0.102692,
2.9225,0.0708008,
2.923,0.0140381,
2.9235,-0.0337219,
2.924,-0.0619507,
2.9245,-0.0698853,
2.925,-0.0431824,
2.9255,0.0215149,
2.926,0.0811768,
2.9265,0.093689,
2.927,0.0691223,
2.9275,0.0468445,
2.928,0.0378418,
2.9285,0.0413513,
2.929,0.0466919,
2.9295,0.0245667,
2.93,-0.000915527,
2.9305,0.0202942,
2.931,0.0500488,
2.9315,0.0210571,
2.932,-0.0444031,
2.9325,-0.0862122,
2.933,-0.109558,
2.9335,-0.156403,
2.934,-0.223236,
2.9345,-0.254211,
2.935,-0.237427,
2.9355,-0.236359,
2.936,-0.28717,
2.9365,-0.36087,
2.937,-0.403595,
2.9375,-0.367126,
2.938,-0.260162,
2.9385,-0.133057,
2.939,-0.0100708,
2.9395,0.105743,
2.94,0.192871,
2.9405,0.22522,
2.941,0.281982,
2.9415,0.445557,
2.942,0.636444,
2.9425,0.714417,
2.943,0.648804,
2.9435,0.512848,
2.944,0.366974,
2.9445,0.236359,
2.945,0.148315,
2.9455,0.092926,
2.946,0.0666809,
2.9465,0.085144,
2.947,0.111847,
2.9475,0.0985718,
2.948,0.0498962,
2.9485,0.00488281,
2.949,-0.00717163,
2.9495,-0.00793457,
2.95,-0.0238037,
2.9505,-0.0442505,
2.951,-0.0550842,
2.9515,-0.0604248,
2.952,-0.0650024,
2.9525,-0.062561,
2.953,-0.070343,
2.9535,-0.104065,
2.954,-0.137939,
2.9545,-0.132751,
2.955,-0.0953674,
2.9555,-0.0619507,
2.956,-0.0538635,
2.9565,-0.0613403,
2.957,-0.0663757,
2.9575,-0.0616455,
2.958,-0.0564575,
2.9585,-0.0570679,
2.959,-0.0665283,
2.9595,-0.0854492,
2.96,-0.0971985,
2.9605,-0.0912476,
2.961,-0.0996399,
2.9615,-0.133057,
2.962,-0.162964,
2.9625,-0.164337,
2.963,-0.146027,
2.9635,-0.122986,
2.964,-0.11261,
2.9645,-0.105591,
2.965,-0.0643921,
2.9655,-0.00518799,
2.966,0.0198364,
2.9665,0.0244141,
2.967,0.038147,
2.9675,0.0415039,
2.968,0.0178528,
2.9685,0.00915527,
2.969,0.0302124,
2.9695,0.0357056,
2.97,0.00473022,
2.9705,-0.0126648,
2.971,0.0296021,
2.9715,0.114899,
2.972,0.19043,
2.9725,0.211487,
2.973,0.176544,
2.9735,0.11261,
2.974,0.0289917,
2.9745,-0.0485229,
2.975,-0.0747681,
2.9755,-0.0628662,
2.976,-0.0488281,
2.9765,-0.0354004,
2.977,-0.0166321,
2.9775,0.00869751,
2.978,0.0285339,
2.9785,0.0363159,
2.979,0.0404358,
2.9795,0.042572,
2.98,0.0256348,
2.9805,-0.00839233,
2.981,-0.0367737,
2.9815,-0.0450134,
2.982,-0.0311279,
2.9825,-0.00198364,
2.983,0.0254822,
2.9835,0.03479,
2.984,0.0241089,
2.9845,0.0100708,
2.985,0.00396729,
2.9855,0.00289917,
2.986,0.00198364,
2.9865,-0.000305176,
2.987,-0.00930786,
2.9875,-0.0280762,
2.988,-0.0564575,
2.9885,-0.0866699,
2.989,-0.108337,
2.9895,-0.122681,
2.99,-0.117798,
2.9905,-0.0787354,
2.991,-0.0151062,
2.9915,0.0402832,
2.992,0.0732422,
2.9925,0.102081,
2.993,0.132446,
2.9935,0.140686,
2.994,0.0976563,
2.9945,0.014801,
2.995,-0.0737,
2.9955,-0.120239,
2.996,-0.0961304,
2.9965,-0.0361633,
2.997,-0.0132751,
2.9975,-0.0601196,
2.998,-0.128021,
2.9985,-0.148773,
2.999,-0.107269,
2.9995,-0.0485229,
3,0.000457764,
3.0005,0.0628662,
3.001,0.136719,
3.0015,0.181427,
3.002,0.214996,
3.0025,0.240173,
3.003,0.210571,
3.0035,0.149231,
3.004,0.120239,
3.0045,0.116425,
3.005,0.102997,
3.0055,0.0970459,
3.006,0.0987244,
3.0065,0.0819397,
3.007,0.0285339,
3.0075,-0.0570679,
3.008,-0.152435,
3.0085,-0.241547,
3.009,-0.315399,
3.0095,-0.363617,
3.01,-0.379181,
3.0105,-0.372009,
3.011,-0.367737,
3.0115,-0.37323,
3.012,-0.3685,
3.0125,-0.318451,
3.013,-0.210876,
3.0135,-0.0701904,
3.014,0.0769043,
3.0145,0.218048,
3.015,0.301819,
3.0155,0.276489,
3.016,0.163574,
3.0165,0.0192261,
3.017,-0.0845337,
3.0175,-0.050354,
3.018,0.160217,
3.0185,0.412598,
3.019,0.511475,
3.0195,0.420532,
3.02,0.24826,
3.0205,0.112,
3.021,0.0492859,
3.0215,0.0172424,
3.022,-0.00991821,
3.0225,-0.0157166,
3.023,0.01297,
3.0235,0.0572205,
3.024,0.0723267,
3.0245,0.057373,
3.025,0.0395203,
3.0255,0.0259399,
3.026,0.0100708,
3.0265,-0.00427246,
3.027,-0.015564,
3.0275,-0.0352478,
3.028,-0.0546265,
3.0285,-0.057373,
3.029,-0.050354,
3.0295,-0.0537109,
3.03,-0.0682068,
3.0305,-0.0802612,
3.031,-0.0764465,
3.0315,-0.0657654,
3.032,-0.0547791,
3.0325,-0.0389099,
3.033,-0.0244141,
3.0335,-0.00701904,
3.034,0,
3.0345,-0.0263977,
3.035,-0.0500488,
3.0355,-0.0384521,
3.036,-0.0169373,
3.0365,-0.00183105,
3.037,-0.000915527,
3.0375,-0.0331116,
3.038,-0.0915527,
3.0385,-0.131073,
3.039,-0.117188,
3.0395,-0.0697327,
3.04,-0.0291443,
3.0405,-0.0312805,
3.041,-0.0692749,
3.0415,-0.0856018,
3.042,-0.0688171,
3.0425,-0.0689697,
3.043,-0.0914001,
3.0435,-0.0892639,
3.044,-0.0585938,
3.0445,-0.0370789,
3.045,-0.040741,
3.0455,-0.0502014,
3.046,-0.0514221,
3.0465,-0.0456238,
3.047,-0.0450134,
3.0475,-0.0378418,
3.048,0.017395,
3.0485,0.106964,
3.049,0.162811,
3.0495,0.153503,
3.05,0.13031,
3.0505,0.129852,
3.051,0.132294,
3.0515,0.127563,
3.052,0.11795,
3.0525,0.0724792,
3.053,0.00320435,
3.0535,-0.0494385,
3.054,-0.0874329,
3.0545,-0.113983,
3.055,-0.111542,
3.0555,-0.0582886,
3.056,0.03479,
3.0565,0.0889587,
3.057,0.0715637,
3.0575,0.0402832,
3.058,0.0292969,
3.0585,0.0325012,
3.059,0.0784302,
3.0595,0.160065,
3.06,0.21347,
3.0605,0.214386,
3.061,0.177612,
3.0615,0.106659,
3.062,0.0178528,
3.0625,-0.0218201,
3.063,0.00442505,
3.0635,0.0169373,
3.064,-0.00686646,
3.0645,-0.0154114,
3.065,0.00564575,
3.0655,0.0257874,
3.066,0.0285339,
3.0665,0.00900269,
3.067,-0.0213623,
3.0675,-0.0419617,
3.068,-0.0498962,
3.0685,-0.057373,
3.069,-0.0715637,
3.0695,-0.0938416,
3.07,-0.112457,
3.0705,-0.109406,
3.071,-0.100861,
3.0715,-0.102234,
3.072,-0.104065,
3.0725,-0.0933838,
3.073,-0.0746155,
3.0735,-0.0439453,
3.074,0.0012207,
3.0745,0.0515747,
3.075,0.0961304,
3.0755,0.109558,
3.076,0.0714111,
3.0765,0.0050354,
3.077,-0.0547791,
3.0775,-0.0865173,
3.078,-0.0614929,
3.0785,0.0160217,
3.079,0.0845337,
3.0795,0.0944519,
3.08,0.0540161,
3.0805,0.00595093,
3.081,-0.0183105,
3.0815,-0.00473022,
3.082,0.0376892,
3.0825,0.0842285,
3.083,0.137787,
3.0835,0.164032,
3.084,0.120087,
3.0845,0.0363159,
3.085,-0.0421143,
3.0855,-0.0975037,
3.086,-0.0830078,
3.0865,-0.00213623,
3.087,0.0401306,
3.0875,0.00732422,
3.088,-0.0305176,
3.0885,-0.050354,
3.089,-0.0721741,
3.0895,-0.0773621,
3.09,-0.0587463,
3.0905,-0.0469971,
3.091,-0.035553,
3.0915,-0.014801,
3.092,-0.018158,
3.0925,-0.0514221,
3.093,-0.0701904,
3.0935,-0.0827026,
3.094,-0.131683,
3.0945,-0.22171,
3.095,-0.330963,
3.0955,-0.424042,
3.096,-0.476379,
3.0965,-0.507355,
3.097,-0.544434,
3.0975,-0.569916,
3.098,-0.54657,
3.0985,-0.465851,
3.099,-0.345306,
3.0995,-0.200653,
3.1,-0.0416565,
3.1005,0.13916,
3.101,0.337677,
3.1015,0.494232,
3.102,0.548859,
3.1025,0.529785,
3.103,0.530243,
3.1035,0.569305,
3.104,0.597839,
3.1045,0.587311,
3.105,0.517883,
3.1055,0.408325,
3.106,0.318604,
3.1065,0.251923,
3.107,0.182037,
3.1075,0.111847,
3.108,0.0639343,
3.1085,0.0454712,
3.109,0.045929,
3.1095,0.0402832,
3.11,0.019989,
3.1105,0.000915527,
3.111,-0.0120544,
3.1115,-0.0265503,
3.112,-0.038147,
3.1125,-0.0424194,
3.113,-0.0505066,
3.1135,-0.0706482,
3.114,-0.0993347,
3.1145,-0.126953,
3.115,-0.153503,
3.1155,-0.173798,
3.116,-0.172882,
3.1165,-0.141296,
3.117,-0.0894165,
3.1175,-0.065155,
3.118,-0.0854492,
3.1185,-0.105133,
3.119,-0.0656128,
3.1195,0.0213623,
3.12,0.0779724,
3.1205,0.0611877,
3.121,0.0111389,
3.1215,-0.0166321,
3.122,-0.0102234,
3.1225,0,
3.123,-0.00762939,
3.1235,-0.022583,
3.124,-0.0315857,
3.1245,-0.0335693,
3.125,-0.0320435,
3.1255,-0.0254822,
3.126,-0.0233459,
3.1265,-0.0366211,
3.127,-0.0645447,
3.1275,-0.0891113,
3.128,-0.0843811,
3.1285,-0.0535583,
3.129,-0.0263977,
3.1295,-0.0170898,
3.13,-0.0234985,
3.1305,-0.0369263,
3.131,-0.0471497,
3.1315,-0.0520325,
3.132,-0.0547791,
3.1325,-0.0569153,
3.133,-0.0593567,
3.1335,-0.055542,
3.134,-0.0302124,
3.1345,0.00518799,
3.135,0.0212097,
3.1355,0.0309753,
3.136,0.0450134,
3.1365,0.0431824,
3.137,0.0326538,
3.1375,0.0222778,
3.138,0.00152588,
3.1385,-0.0210571,
3.139,-0.0302124,
3.1395,-0.0256348,
3.14,-0.0134277,
3.1405,-0.0102234,
3.141,-0.0158691,
3.1415,-0.00228882,
3.142,0.0178528,
3.1425,0.0120544,
3.143,-0.00442505,
3.1435,-0.0144958,
3.144,-0.0234985,
3.1445,-0.0218201,
3.145,0.00213623,
3.1455,0.0282288,
3.146,0.0274658,
3.1465,0.00976563,
3.147,0.00213623,
3.1475,-0.00198364,
3.148,-0.0224304,
3.1485,-0.0338745,
3.149,-0.0112915,
3.1495,0.00854492,
3.15,-0.00167847,
3.1505,-0.0234985,
3.151,-0.0291443,
3.1515,-0.00961304,
3.152,0.0128174,
3.1525,0.000152588,
3.153,-0.0416565,
3.1535,-0.0665283,
3.154,-0.0779724,
3.1545,-0.0946045,
3.155,-0.10788,
3.1555,-0.102997,
3.156,-0.0915527,
3.1565,-0.105438,
3.157,-0.160065,
3.1575,-0.201721,
3.158,-0.160522,
3.1585,-0.0505066,
3.159,0.0845337,
3.1595,0.208588,
3.16,0.274506,
3.1605,0.272064,
3.161,0.243988,
3.1615,0.240631,
3.162,0.243835,
3.1625,0.211945,
3.163,0.16037,
3.1635,0.125732,
3.164,0.116272,
3.1645,0.114136,
3.165,0.080719,
3.1655,0.0224304,
3.166,-0.0268555,
3.1665,-0.052948,
3.167,-0.045166,
3.1675,-0.0170898,
3.168,-0.00579834,
3.1685,-0.0128174,
3.169,-0.0137329,
3.1695,-0.0088501,
3.17,0.00762939,
3.1705,0.0370789,
3.171,0.0473022,
3.1715,0.0209045,
3.172,-0.0105286,
3.1725,-0.0306702,
3.173,-0.0617981,
3.1735,-0.0828552,
3.174,-0.0547791,
3.1745,-0.0135803,
3.175,-0.0170898,
3.1755,-0.0605774,
3.176,-0.109863,
3.1765,-0.15274,
3.177,-0.182953,
3.1775,-0.197754,
3.178,-0.197754,
3.1785,-0.193787,
3.179,-0.190735,
3.1795,-0.184631,
3.18,-0.169067,
3.1805,-0.142365,
3.181,-0.105286,
3.1815,-0.0460815,
3.182,0.0480652,
3.1825,0.181885,
3.183,0.31723,
3.1835,0.374756,
3.184,0.329437,
3.1845,0.238495,
3.185,0.156555,
3.1855,0.104828,
3.186,0.0836182,
3.1865,0.0872803,
3.187,0.0900269,
3.1875,0.0617981,
3.188,0.0114441,
3.1885,-0.0238037,
3.189,-0.022583,
3.1895,-0.00213623,
3.19,0.00717163,
3.1905,-0.00823975,
3.191,-0.0404358,
3.1915,-0.0642395,
3.192,-0.0639343,
3.1925,-0.0535583,
3.193,-0.0570679,
3.1935,-0.0805664,
3.194,-0.113831,
3.1945,-0.154724,
3.195,-0.175781,
3.1955,-0.152283,
3.196,-0.0947571,
3.1965,-0.0140381,
3.197,0.0737,
3.1975,0.120544,
3.198,0.108643,
3.1985,0.0891113,
3.199,0.103302,
3.1995,0.123291,
3.2,0.113068,
3.2005,0.09552,
3.201,0.0909424,
3.2015,0.0660706,
3.202,0.0125122,
3.2025,-0.0262451,
3.203,-0.0361633,
3.2035,-0.0415039,
3.204,-0.0343323,
3.2045,-0.000457764,
3.205,0.032959,
3.2055,0.0328064,
3.206,0.00671387,
3.2065,-0.0201416,
3.207,-0.0404358,
3.2075,-0.0553894,
3.208,-0.0509644,
3.2085,-0.0212097,
3.209,0.00549316,
3.2095,0.0123596,
3.21,0.0149536,
3.2105,0.0135803,
3.211,-0.00320435,
3.2115,-0.014801,
3.212,-0.00839233,
3.2125,-0.00518799,
3.213,-0.0167847,
3.2135,-0.0473022,
3.214,-0.0926208,
3.2145,-0.119171,
3.215,-0.0843811,
3.2155,-0.00137329,
3.216,0.0569153,
3.2165,0.062561,
3.217,0.0553894,
3.2175,0.0543213,
3.218,0.0379944,
3.2185,0.00259399,
3.219,-0.0262451,
3.2195,-0.0357056,
3.22,-0.0436401,
3.2205,-0.0552368,
3.221,-0.0556946,
3.2215,-0.0436401,
3.222,-0.035553,
3.2225,-0.0161743,
3.223,0.0259399,
3.2235,0.0474548,
3.224,0.0267029,
3.2245,-0.000457764,
3.225,-0.000915527,
3.2255,0.00595093,
3.226,-0.0062561,
3.2265,-0.0234985,
3.227,-0.0314331,
