0,0.00534058,
0.0005,0.00610352,
0.001,0.00442505,
0.0015,0.00228882,
0.002,0.00137329,
0.0025,-0.000152588,
0.003,-0.00106812,
0.0035,-0.00320435,
0.004,-0.00457764,
0.0045,-0.00289917,
0.005,-0.00274658,
0.0055,-0.00335693,
0.006,-0.00350952,
0.0065,-0.00488281,
0.007,-0.00610352,
0.0075,-0.00640869,
0.008,-0.00915527,
0.0085,-0.0108337,
0.009,-0.0105286,
0.0095,-0.00946045,
0.01,-0.0100708,
0.0105,-0.00900269,
0.011,-0.00732422,
0.0115,-0.00915527,
0.012,-0.0109863,
0.0125,-0.0128174,
0.013,-0.0149536,
0.0135,-0.0146484,
0.014,-0.0111389,
0.0145,-0.00946045,
0.015,-0.0117493,
0.0155,-0.01297,
0.016,-0.0154114,
0.0165,-0.0170898,
0.017,-0.0177002,
0.0175,-0.0144958,
0.018,-0.0120544,
0.0185,-0.0114441,
0.019,-0.0111389,
0.0195,-0.012207,
0.02,-0.0125122,
0.0205,-0.00839233,
0.021,-0.00640869,
0.0215,-0.00808716,
0.022,-0.0115967,
0.0225,-0.0126648,
0.023,-0.010376,
0.0235,-0.010376,
0.024,-0.0109863,
0.0245,-0.0106812,
0.025,-0.00808716,
0.0255,-0.00946045,
0.026,-0.010376,
0.0265,-0.00946045,
0.027,-0.0102234,
0.0275,-0.0106812,
0.028,-0.0108337,
0.0285,-0.00961304,
0.029,-0.00976563,
0.0295,-0.00717163,
0.03,-0.00320435,
0.0305,-0.00289917,
0.031,-0.00183105,
0.0315,-0.00106812,
0.032,0.000305176,
0.0325,-0.000305176,
0.033,0.000152588,
0.0335,-0.00183105,
0.034,-0.00289917,
0.0345,-0.0012207,
0.035,0.00366211,
0.0355,0.00579834,
0.036,0.00305176,
0.0365,0.000305176,
0.037,-0.000610352,
0.0375,0.000915527,
0.038,0.00518799,
0.0385,0.0114441,
0.039,0.0187683,
0.0395,0.014801,
0.04,0.00411987,
0.0405,-0.00411987,
0.041,0.000457764,
0.0415,0.0135803,
0.042,0.0183105,
0.0425,0.0119019,
0.043,0.00640869,
0.0435,0.00411987,
0.044,0.00183105,
0.0445,0.00152588,
0.045,0.00305176,
0.0455,0.00183105,
0.046,0.000457764,
0.0465,0.00213623,
0.047,0.00366211,
0.0475,0.00411987,
0.048,0.00534058,
0.0485,0.00457764,
0.049,0.00350952,
0.0495,0.00350952,
0.05,0.00213623,
0.0505,0.000457764,
0.051,0.000305176,
0.0515,0.00106812,
0.052,0,
0.0525,0.000610352,
0.053,-0.000305176,
0.0535,0.000762939,
0.054,0.00106812,
0.0545,0,
0.055,0.000915527,
0.0555,0.00320435,
0.056,0.00411987,
0.0565,0.00518799,
0.057,0.00305176,
0.0575,0.00213623,
0.058,0.00274658,
0.0585,0.00137329,
0.059,-0.00305176,
0.0595,-0.00228882,
0.06,-0.00350952,
0.0605,-0.0062561,
0.061,-0.00442505,
0.0615,-0.00198364,
0.062,0.000152588,
0.0625,0.0012207,
0.063,0.0012207,
0.0635,0.00183105,
0.064,0.00335693,
0.0645,0.00686646,
0.065,0.00778198,
0.0655,0.00305176,
0.066,-0.0012207,
0.0665,0.00549316,
0.067,0.0175476,
0.0675,0.022583,
0.068,0.025177,
0.0685,0.0250244,
0.069,0.0161743,
0.0695,0.00366211,
0.07,0.00152588,
0.0705,0.00442505,
0.071,-0.00701904,
0.0715,-0.0364685,
0.072,-0.0538635,
0.0725,-0.0488281,
0.073,-0.0389099,
0.0735,-0.0315857,
0.074,-0.0238037,
0.0745,-0.017395,
0.075,-0.0106812,
0.0755,-0.00656128,
0.076,-0.010376,
0.0765,-0.0114441,
0.077,-0.00656128,
0.0775,-0.00579834,
0.078,-0.00701904,
0.0785,-0.00717163,
0.079,-0.00946045,
0.0795,-0.00915527,
0.08,-0.00106812,
0.0805,0.01297,
0.081,0.0234985,
0.0815,0.0238037,
0.082,0.018158,
0.0825,0.0131226,
0.083,0.00930786,
0.0835,0.00335693,
0.084,-0.00366211,
0.0845,-0.00900269,
0.085,-0.0138855,
0.0855,-0.0184631,
0.086,-0.0180054,
0.0865,-0.0167847,
0.087,-0.0166321,
0.0875,-0.0210571,
0.088,-0.0242615,
0.0885,-0.0245667,
0.089,-0.019989,
0.0895,-0.0149536,
0.09,-0.0117493,
0.0905,-0.00701904,
0.091,-0.00274658,
0.0915,-0.0012207,
0.092,0.000762939,
0.0925,0.00595093,
0.093,0.0170898,
0.0935,0.0309753,
0.094,0.0439453,
0.0945,0.0444031,
0.095,0.0361633,
0.0955,0.0213623,
0.096,0.00854492,
0.0965,-0.000762939,
0.097,-0.0062561,
0.0975,-0.00610352,
0.098,-0.00213623,
0.0985,0.00106812,
0.099,-0.00198364,
0.0995,-0.00854492,
0.1,-0.0119019,
0.1005,-0.0123596,
0.101,-0.0062561,
0.1015,-0.00167847,
0.102,-0.00579834,
0.1025,-0.00747681,
0.103,-0.00640869,
0.1035,-0.00473022,
0.104,-0.00747681,
0.1045,-0.0126648,
0.105,-0.0141907,
0.1055,-0.0106812,
0.106,-0.00808716,
0.1065,-0.01297,
0.107,-0.0163269,
0.1075,-0.0163269,
0.108,-0.0146484,
0.1085,-0.0149536,
0.109,-0.0140381,
0.1095,-0.0152588,
0.11,-0.0170898,
0.1105,-0.0177002,
0.111,-0.0160217,
0.1115,-0.0125122,
0.112,-0.00915527,
0.1125,-0.00579834,
0.113,-0.00686646,
0.1135,-0.0062561,
0.114,-0.00396729,
0.1145,0.00244141,
0.115,0.0102234,
0.1155,0.0138855,
0.116,0.0102234,
0.1165,0.00427246,
0.117,0.00137329,
0.1175,-0.00167847,
0.118,-0.00167847,
0.1185,-0.00366211,
0.119,-0.00793457,
0.1195,-0.00839233,
0.12,-0.00808716,
0.1205,-0.00701904,
0.121,-0.00640869,
0.1215,-0.00869751,
0.122,-0.00534058,
0.1225,-0.00167847,
0.123,0.00350952,
0.1235,0.00564575,
0.124,0.00442505,
0.1245,0.00289917,
0.125,0.00350952,
0.1255,0.00534058,
0.126,0.00289917,
0.1265,0.00320435,
0.127,0.0012207,
0.1275,-0.00305176,
0.128,-0.0038147,
0.1285,-0.0050354,
0.129,-0.00335693,
0.1295,0.00167847,
0.13,0.00305176,
0.1305,0.00213623,
0.131,0.00167847,
0.1315,0.00320435,
0.132,0.00350952,
0.1325,0.00198364,
0.133,0.000610352,
0.1335,0.00244141,
0.134,0.00350952,
0.1345,0.00106812,
0.135,0.00320435,
0.1355,0.00701904,
0.136,0.00823975,
0.1365,0.00732422,
0.137,0.00839233,
0.1375,0.0117493,
0.138,0.0123596,
0.1385,0.00534058,
0.139,0.000762939,
0.1395,0.0012207,
0.14,0.00457764,
0.1405,0.00747681,
0.141,0.00823975,
0.1415,0.00549316,
0.142,0.00274658,
0.1425,0.00320435,
0.143,0.0050354,
0.1435,0.00427246,
0.144,0.000305176,
0.1445,-0.00427246,
0.145,-0.00732422,
0.1455,-0.00762939,
0.146,-0.00320435,
0.1465,0.00152588,
0.147,0.00137329,
0.1475,-0.00183105,
0.148,-0.00289917,
0.1485,-0.000305176,
0.149,-0.000457764,
0.1495,-0.00152588,
0.15,-0.00396729,
0.1505,-0.0038147,
0.151,-0.00228882,
0.1515,-0.00442505,
0.152,-0.0050354,
0.1525,-0.00289917,
0.153,-0.00320435,
0.1535,-0.00488281,
0.154,-0.00595093,
0.1545,-0.00717163,
0.155,-0.00717163,
0.1555,-0.00976563,
0.156,-0.0117493,
0.1565,-0.0102234,
0.157,-0.0102234,
0.1575,-0.0088501,
0.158,-0.00839233,
0.1585,-0.00732422,
0.159,-0.000915527,
0.1595,0.00671387,
0.16,0.0146484,
0.1605,0.0161743,
0.161,0.0141907,
0.1615,0.010376,
0.162,0.00640869,
0.1625,-0.00167847,
0.163,-0.0141907,
0.1635,-0.0260925,
0.164,-0.0328064,
0.1645,-0.0344849,
0.165,-0.0305176,
0.1655,-0.0276184,
0.166,-0.0231934,
0.1665,-0.0205994,
0.167,-0.0161743,
0.1675,-0.00869751,
0.168,0.000152588,
0.1685,0.00289917,
0.169,0.000610352,
0.1695,-0.00274658,
0.17,-0.00518799,
0.1705,-0.00839233,
0.171,-0.01297,
0.1715,-0.014801,
0.172,-0.0120544,
0.1725,-0.00946045,
0.173,-0.00671387,
0.1735,-0.00549316,
0.174,-0.00305176,
0.1745,-0.00320435,
0.175,-0.00488281,
0.1755,-0.00778198,
0.176,-0.0119019,
0.1765,-0.0161743,
0.177,-0.0196838,
0.1775,-0.0224304,
0.178,-0.0247192,
0.1785,-0.025177,
0.179,-0.0241089,
0.1795,-0.0248718,
0.18,-0.0233459,
0.1805,-0.0196838,
0.181,-0.0163269,
0.1815,-0.0109863,
0.182,-0.00900269,
0.1825,-0.00732422,
0.183,-0.000762939,
0.1835,0.0102234,
0.184,0.0204468,
0.1845,0.030365,
0.185,0.0387573,
0.1855,0.0398254,
0.186,0.0361633,
0.1865,0.0378418,
0.187,0.0428772,
0.1875,0.045166,
0.188,0.0408936,
0.1885,0.0382996,
0.189,0.0343323,
0.1895,0.0302124,
0.19,0.0263977,
0.1905,0.0219727,
0.191,0.0126648,
0.1915,0.000305176,
0.192,-0.00320435,
0.1925,0.00564575,
0.193,0.00823975,
0.1935,-0.00305176,
0.194,-0.00976563,
0.1945,-0.00747681,
0.195,-0.00274658,
0.1955,0.000305176,
0.196,0.00152588,
0.1965,0.0012207,
0.197,0.00137329,
0.1975,0.00152588,
0.198,0.0012207,
0.1985,-0.000915527,
0.199,-0.00442505,
0.1995,-0.00869751,
0.2,-0.00656128,
0.2005,-0.00473022,
0.201,-0.00579834,
0.2015,-0.0088501,
0.202,-0.0105286,
0.2025,-0.0106812,
0.203,-0.00915527,
0.2035,-0.00976563,
0.204,-0.00915527,
0.2045,-0.00808716,
0.205,-0.00717163,
0.2055,-0.0102234,
0.206,-0.0184631,
0.2065,-0.0283813,
0.207,-0.0296021,
0.2075,-0.0256348,
0.208,-0.0254822,
0.2085,-0.0244141,
0.209,-0.0157166,
0.2095,-0.00137329,
0.21,0.0100708,
0.2105,0.0175476,
0.211,0.0259399,
0.2115,0.0259399,
0.212,0.0198364,
0.2125,0.00854492,
0.213,0.00106812,
0.2135,-0.00579834,
0.214,-0.0187683,
0.2145,-0.027771,
0.215,-0.0253296,
0.2155,-0.0204468,
0.216,-0.0183105,
0.2165,-0.017395,
0.217,-0.0117493,
0.2175,-0.00915527,
0.218,-0.00869751,
0.2185,-0.0114441,
0.219,-0.00915527,
0.2195,-0.00701904,
0.22,-0.00640869,
0.2205,-0.00717163,
0.221,-0.00640869,
0.2215,-0.00488281,
0.222,-0.00564575,
0.2225,-0.00717163,
0.223,-0.00564575,
0.2235,-0.00991821,
0.224,-0.0163269,
0.2245,-0.0135803,
0.225,-0.00671387,
0.2255,-0.00274658,
0.226,-0.00106812,
0.2265,0.000915527,
0.227,0.00259399,
0.2275,0,
0.228,-0.00366211,
0.2285,-0.00366211,
0.229,-0.00228882,
0.2295,-0.00396729,
0.23,-0.00976563,
0.2305,-0.0120544,
0.231,-0.0088501,
0.2315,-0.000762939,
0.232,0.0114441,
0.2325,0.0184631,
0.233,0.020752,
0.2335,0.0201416,
0.234,0.0149536,
0.2345,0.00747681,
0.235,0.00320435,
0.2355,0.00244141,
0.236,-0.0050354,
0.2365,-0.0195313,
0.237,-0.0279236,
0.2375,-0.0205994,
0.238,-0.00762939,
0.2385,-0.00213623,
0.239,-0.00274658,
0.2395,-0.00289917,
0.24,-0.00183105,
0.2405,-0.00106812,
0.241,-0.00137329,
0.2415,-0.00289917,
0.242,-0.00488281,
0.2425,-0.00518799,
0.243,-0.00427246,
0.2435,-0.00366211,
0.244,-0.00396729,
0.2445,-0.00473022,
0.245,-0.00396729,
0.2455,-0.00335693,
0.246,-0.00137329,
0.2465,0.000457764,
0.247,0.00106812,
0.2475,0.00183105,
0.248,0.00274658,
0.2485,0.00152588,
0.249,-0.000305176,
0.2495,-0.000915527,
0.25,0.000305176,
0.2505,0.00762939,
0.251,0.0112915,
0.2515,0.00869751,
0.252,0.010376,
0.2525,0.0120544,
0.253,0.0108337,
0.2535,0.00717163,
0.254,0.0123596,
0.2545,0.0205994,
0.255,0.0169373,
0.2555,0.00579834,
0.256,-0.00259399,
0.2565,-0.00610352,
0.257,-0.0125122,
0.2575,-0.0236511,
0.258,-0.0305176,
0.2585,-0.0247192,
0.259,-0.0114441,
0.2595,-0.00183105,
0.26,0.00244141,
0.2605,0.00213623,
0.261,0.00152588,
0.2615,0.00320435,
0.262,0.00396729,
0.2625,-0.00259399,
0.263,-0.00656128,
0.2635,-0.00762939,
0.264,-0.00518799,
0.2645,-0.00488281,
0.265,-0.00427246,
0.2655,-0.0038147,
0.266,-0.00350952,
0.2665,-0.00305176,
0.267,0,
0.2675,0.00198364,
0.268,-0.0012207,
0.2685,-0.00213623,
0.269,0.00152588,
0.2695,0.00289917,
0.27,0.00106812,
0.2705,0.000305176,
0.271,-0.00396729,
0.2715,-0.00762939,
0.272,-0.0143433,
0.2725,-0.0326538,
0.273,-0.0544739,
0.2735,-0.0616455,
0.274,-0.0561523,
0.2745,-0.042572,
0.275,-0.0335693,
0.2755,-0.0361633,
0.276,-0.03479,
0.2765,-0.025177,
0.277,-0.0183105,
0.2775,-0.0184631,
0.278,-0.00549316,
0.2785,0.0515747,
0.279,0.118408,
0.2795,0.0967407,
0.28,0.0132751,
0.2805,-0.0361633,
0.281,-0.0401306,
0.2815,-0.0341797,
0.282,-0.0326538,
0.2825,-0.0328064,
0.283,-0.0346375,
0.2835,-0.0434875,
0.284,-0.0485229,
0.2845,-0.0219727,
0.285,0.0701904,
0.2855,0.205231,
0.286,0.229645,
0.2865,0.130005,
0.287,0.0370789,
0.2875,0.00579834,
0.288,-0.00411987,
0.2885,-0.0178528,
0.289,-0.0286865,
0.2895,-0.0312805,
0.29,-0.0300598,
0.2905,-0.0376892,
0.291,-0.096283,
0.2915,-0.228424,
0.292,-0.406189,
0.2925,-0.55954,
0.293,-0.610657,
0.2935,-0.552521,
0.294,-0.444489,
0.2945,-0.340881,
0.295,-0.274963,
0.2955,-0.278015,
0.296,-0.345764,
0.2965,-0.313568,
0.297,-0.0012207,
0.2975,0.544891,
0.298,1.02798,
0.2985,1.19141,
0.299,1.07544,
0.2995,0.814362,
0.3,0.517883,
0.3005,0.285492,
0.301,0.162964,
0.3015,0.115204,
0.302,0.090332,
0.3025,0.0764465,
0.303,0.0694275,
0.3035,0.0598145,
0.304,0.0495911,
0.3045,0.0453186,
0.305,0.0408936,
0.3055,0.0360107,
0.306,0.0323486,
0.3065,0.0238037,
0.307,0.0157166,
0.3075,0.0157166,
0.308,0.014801,
0.3085,0.0088501,
0.309,0.00366211,
0.3095,0,
0.31,-0.00320435,
0.3105,-0.00900269,
0.311,-0.0140381,
0.3115,-0.0178528,
0.312,-0.0222778,
0.3125,-0.0276184,
0.313,-0.0276184,
0.3135,-0.0224304,
0.314,-0.0184631,
0.3145,-0.0196838,
0.315,-0.0239563,
0.3155,-0.0271606,
0.316,-0.0308228,
0.3165,-0.0428772,
0.317,-0.0582886,
0.3175,-0.0680542,
0.318,-0.0701904,
0.3185,-0.072937,
0.319,-0.0743103,
0.3195,-0.0744629,
0.32,-0.0753784,
0.3205,-0.0718689,
0.321,-0.0637817,
0.3215,-0.063324,
0.322,-0.0708008,
0.3225,-0.0750732,
0.323,-0.0747681,
0.3235,-0.0738525,
0.324,-0.0691223,
0.3245,-0.065918,
0.325,-0.065155,
0.3255,-0.0602722,
0.326,-0.0566101,
0.3265,-0.0569153,
0.327,-0.0588989,
0.3275,-0.0613403,
0.328,-0.0608826,
0.3285,-0.0561523,
0.329,-0.0495911,
0.3295,-0.0465393,
0.33,-0.0476074,
0.3305,-0.0526428,
0.331,-0.0540161,
0.3315,-0.0526428,
0.332,-0.0506592,
0.3325,-0.0521851,
0.333,-0.0526428,
0.3335,-0.045929,
0.334,-0.0398254,
0.3345,-0.0404358,
0.335,-0.0454712,
0.3355,-0.0502014,
0.336,-0.0520325,
0.3365,-0.0498962,
0.337,-0.0473022,
0.3375,-0.0473022,
0.338,-0.0486755,
0.3385,-0.0447083,
0.339,-0.0431824,
0.3395,-0.0436401,
0.34,-0.0413513,
0.3405,-0.0325012,
0.341,-0.0254822,
0.3415,-0.0231934,
0.342,-0.022583,
0.3425,-0.0215149,
0.343,-0.0212097,
0.3435,-0.0241089,
0.344,-0.0271606,
0.3445,-0.0294495,
0.345,-0.0289917,
0.3455,-0.0256348,
0.346,-0.0263977,
0.3465,-0.0323486,
0.347,-0.0361633,
0.3475,-0.0325012,
0.348,-0.0212097,
0.3485,-0.00778198,
0.349,-0.00793457,
0.3495,-0.010376,
0.35,-0.00579834,
0.3505,-0.00244141,
0.351,-0.00152588,
0.3515,-0.00473022,
0.352,-0.010376,
0.3525,-0.0177002,
0.353,-0.020752,
0.3535,-0.0157166,
0.354,-0.012207,
0.3545,-0.0100708,
0.355,-0.0144958,
0.3555,-0.0218201,
0.356,-0.0221252,
0.3565,-0.0134277,
0.357,-0.00320435,
0.3575,-0.00274658,
0.358,-0.00839233,
0.3585,-0.0062561,
0.359,-0.000610352,
0.3595,0.00808716,
0.36,0.0234985,
0.3605,0.0360107,
0.361,0.0357056,
0.3615,0.037384,
0.362,0.0474548,
0.3625,0.0527954,
0.363,0.0428772,
0.3635,0.0273132,
0.364,0.0189209,
0.3645,0.0259399,
0.365,0.0308228,
0.3655,0.0291443,
0.366,0.0241089,
0.3665,0.0167847,
0.367,0.01297,
0.3675,0.0143433,
0.368,0.020752,
0.3685,0.0271606,
0.369,0.032196,
0.3695,0.0288391,
0.37,0.0285339,
0.3705,0.0300598,
0.371,0.0314331,
0.3715,0.0289917,
0.372,0.0244141,
0.3725,0.0195313,
0.373,0.0224304,
0.3735,0.0263977,
0.374,0.0294495,
0.3745,0.0292969,
0.375,0.0296021,
0.3755,0.0245667,
0.376,0.018158,
0.3765,0.01297,
0.377,0.0100708,
0.3775,0.00823975,
0.378,0.00335693,
0.3785,0.000457764,
0.379,-0.00106812,
0.3795,-0.00350952,
0.38,-0.00869751,
0.3805,-0.0134277,
0.381,-0.0131226,
0.3815,-0.0088501,
0.382,-0.00106812,
0.3825,0.00656128,
0.383,0.0135803,
0.3835,0.017395,
0.384,0.0172424,
0.3845,0.0189209,
0.385,0.0247192,
0.3855,0.0325012,
0.386,0.038147,
0.3865,0.038147,
0.387,0.0360107,
0.3875,0.0311279,
0.388,0.0308228,
0.3885,0.0349426,
0.389,0.0405884,
0.3895,0.0431824,
0.39,0.0404358,
0.3905,0.0335693,
0.391,0.0276184,
0.3915,0.0222778,
0.392,0.0163269,
0.3925,0.0138855,
0.393,0.0114441,
0.3935,0.00747681,
0.394,0.00305176,
0.3945,0.00152588,
0.395,0.00106812,
0.3955,-0.000152588,
0.396,-0.000610352,
0.3965,0.00305176,
0.397,0.00671387,
0.3975,0.00762939,
0.398,0.0038147,
0.3985,0.00152588,
0.399,-0.000457764,
0.3995,-0.00274658,
0.4,-0.00335693,
0.4005,-0.00549316,
0.401,-0.00930786,
0.4015,-0.0126648,
0.402,-0.0152588,
0.4025,-0.0201416,
0.403,-0.027771,
0.4035,-0.0332642,
0.404,-0.0349426,
0.4045,-0.0361633,
0.405,-0.0411987,
0.4055,-0.0468445,
0.406,-0.0465393,
0.4065,-0.038147,
0.407,-0.0318909,
0.4075,-0.0354004,
0.408,-0.0445557,
0.4085,-0.0468445,
0.409,-0.0338745,
0.4095,-0.01297,
0.41,0.0128174,
0.4105,0.0331116,
0.411,0.0440979,
0.4115,0.0527954,
0.412,0.0617981,
0.4125,0.0662231,
0.413,0.0682068,
0.4135,0.0654602,
0.414,0.0624084,
0.4145,0.0558472,
0.415,0.0454712,
0.4155,0.0334167,
0.416,0.0279236,
0.4165,0.0285339,
0.417,0.0213623,
0.4175,0.0062561,
0.418,-0.00762939,
0.4185,-0.01297,
0.419,-0.00793457,
0.4195,-0.00106812,
0.42,0.00289917,
0.4205,0.00564575,
0.421,0.00488281,
0.4215,-0.00106812,
0.422,-0.00778198,
0.4225,-0.00854492,
0.423,-0.00869751,
0.4235,-0.0114441,
0.424,-0.0205994,
0.4245,-0.0309753,
0.425,-0.03479,
0.4255,-0.0378418,
0.426,-0.0401306,
0.4265,-0.0369263,
0.427,-0.032959,
0.4275,-0.0253296,
0.428,-0.0164795,
0.4285,-0.012207,
0.429,-0.00976563,
0.4295,-0.00396729,
0.43,-0.000152588,
0.4305,-0.00167847,
0.431,-0.00793457,
0.4315,-0.0105286,
0.432,-0.0108337,
0.4325,-0.0111389,
0.433,-0.0105286,
0.4335,-0.00900269,
0.434,-0.00869751,
0.4345,-0.00991821,
0.435,-0.0105286,
0.4355,-0.00915527,
0.436,-0.00839233,
0.4365,-0.00686646,
0.437,-0.00518799,
0.4375,-0.00259399,
0.438,-0.0038147,
0.4385,-0.0100708,
0.439,-0.0190735,
0.4395,-0.0309753,
0.44,-0.0366211,
0.4405,-0.0315857,
0.441,-0.0196838,
0.4415,-0.00701904,
0.442,0.00152588,
0.4425,0.00747681,
0.443,0.012207,
0.4435,0.0140381,
0.444,0.00671387,
0.4445,-0.0109863,
0.445,-0.0248718,
0.4455,-0.0224304,
0.446,-0.0144958,
0.4465,-0.00915527,
0.447,-0.00488281,
0.4475,-0.00228882,
0.448,-0.00320435,
0.4485,-0.0170898,
0.449,-0.0421143,
0.4495,-0.0579834,
0.45,-0.0578308,
0.4505,-0.0512695,
0.451,-0.0436401,
0.4515,-0.0401306,
0.452,-0.0360107,
0.4525,-0.0294495,
0.453,-0.0201416,
0.4535,-0.0100708,
0.454,-0.00549316,
0.4545,-0.00656128,
0.455,-0.00579834,
0.4555,-0.0012207,
0.456,0.000915527,
0.4565,0.00167847,
0.457,0.00427246,
0.4575,0.0050354,
0.458,0.00610352,
0.4585,0.00961304,
0.459,0.0111389,
0.4595,0.0119019,
0.46,0.0135803,
0.4605,0.0169373,
0.461,0.0183105,
0.4615,0.0184631,
0.462,0.0183105,
0.4625,0.0164795,
0.463,0.015564,
0.4635,0.010376,
0.464,0.00701904,
0.4645,0.00595093,
0.465,0.0105286,
0.4655,0.0106812,
0.466,0.00778198,
0.4665,0.00518799,
0.467,0.00564575,
0.4675,0.00564575,
0.468,0.00579834,
0.4685,0.00793457,
0.469,0.00350952,
0.4695,0.000457764,
0.47,0.0012207,
0.4705,0.00305176,
0.471,0.00549316,
0.4715,0.00579834,
0.472,0.00671387,
0.4725,0.00717163,
0.473,0.00305176,
0.4735,-0.0038147,
0.474,-0.00854492,
0.4745,-0.00823975,
0.475,-0.0050354,
0.4755,-0.00396729,
0.476,-0.00427246,
0.4765,0,
0.477,0.00350952,
0.4775,0.00183105,
0.478,-0.00213623,
0.4785,-0.00396729,
0.479,-0.00274658,
0.4795,-0.00274658,
0.48,-0.00305176,
0.4805,-0.000152588,
0.481,0.00137329,
0.4815,0.00167847,
0.482,0.00305176,
0.4825,0.00259399,
0.483,0.00305176,
0.4835,0.00396729,
0.484,0.00549316,
0.4845,0.00549316,
0.485,0.00137329,
0.4855,0.0012207,
0.486,0.00106812,
0.4865,0.000610352,
0.487,-0.00137329,
0.4875,0,
0.488,0.000762939,
0.4885,-0.000457764,
0.489,-0.00198364,
0.4895,0.000457764,
0.49,0.00274658,
0.4905,0.00152588,
0.491,-0.00183105,
0.4915,-0.00274658,
0.492,-0.000152588,
0.4925,0.000915527,
0.493,0.00183105,
0.4935,0.00305176,
0.494,0.00152588,
0.4945,-0.00152588,
0.495,-0.00366211,
0.4955,-0.00549316,
0.496,-0.00869751,
0.4965,-0.0160217,
0.497,-0.0210571,
0.4975,-0.0213623,
0.498,-0.0131226,
0.4985,-0.00366211,
0.499,-0.00198364,
0.4995,-0.00396729,
0.5,-0.00320435,
0.5005,-0.000305176,
0.501,0.000762939,
0.5015,0,
0.502,0.000457764,
0.5025,0.000305176,
0.503,0.00213623,
0.5035,0.0012207,
0.504,-0.00183105,
0.5045,-0.00244141,
0.505,-0.000152588,
0.5055,0.000762939,
0.506,-0.000610352,
0.5065,-0.00228882,
0.507,-0.00213623,
0.5075,-0.00320435,
0.508,-0.00427246,
0.5085,0,
0.509,0.00442505,
0.5095,0.00518799,
0.51,0.000610352,
0.5105,-0.00488281,
0.511,-0.0088501,
0.5115,-0.00869751,
0.512,-0.00732422,
0.5125,-0.00946045,
0.513,-0.0100708,
0.5135,-0.00732422,
0.514,-0.00640869,
0.5145,-0.00778198,
0.515,-0.00778198,
0.5155,-0.00488281,
0.516,-0.00335693,
0.5165,-0.00183105,
0.517,-0.00183105,
0.5175,-0.00442505,
0.518,-0.00518799,
0.5185,-0.00442505,
0.519,-0.00289917,
0.5195,0.00198364,
0.52,0.0050354,
0.5205,0.00656128,
0.521,0.00823975,
0.5215,0.0102234,
0.522,0.0105286,
0.5225,0.00762939,
0.523,0.00427246,
0.5235,0,
0.524,-0.00396729,
0.5245,-0.00442505,
0.525,-0.00106812,
0.5255,-0.000457764,
0.526,0.000610352,
0.5265,-0.00167847,
0.527,-0.0012207,
0.5275,0.000610352,
0.528,0.00137329,
0.5285,0.00167847,
0.529,0.00213623,
0.5295,0.00289917,
0.53,0.00320435,
0.5305,0.000152588,
0.531,-0.00228882,
0.5315,-0.00183105,
0.532,-0.00274658,
0.5325,-0.00457764,
0.533,-0.00396729,
0.5335,-0.00396729,
0.534,-0.00534058,
0.5345,-0.00610352,
0.535,-0.00259399,
0.5355,0.000457764,
0.536,0.00152588,
0.5365,0.00274658,
0.537,0.00198364,
0.5375,0.00244141,
0.538,0.00442505,
0.5385,0.00350952,
0.539,0.00106812,
0.5395,0.000915527,
0.54,0.00198364,
0.5405,0.0050354,
0.541,0.00579834,
0.5415,0.00457764,
0.542,0.00183105,
0.5425,-0.000610352,
0.543,-0.00228882,
0.5435,-0.0038147,
0.544,-0.00579834,
0.5445,-0.00961304,
0.545,-0.0140381,
0.5455,-0.0151062,
0.546,-0.0163269,
0.5465,-0.0186157,
0.547,-0.0170898,
0.5475,-0.00915527,
0.548,-0.00396729,
0.5485,-0.00534058,
0.549,-0.00930786,
0.5495,-0.0123596,
0.55,-0.0126648,
0.5505,-0.00991821,
0.551,-0.010376,
0.5515,-0.0105286,
0.552,-0.00930786,
0.5525,-0.00946045,
0.553,-0.00427246,
0.5535,0.00442505,
0.554,0.0126648,
0.5545,0.0161743,
0.555,0.0132751,
0.5555,0.0126648,
0.556,0.0143433,
0.5565,0.0157166,
0.557,0.0160217,
0.5575,0.01297,
0.558,0.00396729,
0.5585,-0.00518799,
0.559,-0.00839233,
0.5595,-0.00350952,
0.56,-0.00152588,
0.5605,-0.0119019,
0.561,-0.027771,
0.5615,-0.032196,
0.562,-0.0242615,
0.5625,-0.0189209,
0.563,-0.0193787,
0.5635,-0.019989,
0.564,-0.0195313,
0.5645,-0.0218201,
0.565,-0.0230408,
0.5655,-0.0183105,
0.566,-0.0138855,
0.5665,-0.0114441,
0.567,-0.00976563,
0.5675,-0.0115967,
0.568,-0.0108337,
0.5685,-0.00900269,
0.569,-0.00686646,
0.5695,-0.0062561,
0.57,-0.00595093,
0.5705,-0.00656128,
0.571,-0.00961304,
0.5715,-0.010376,
0.572,-0.0108337,
0.5725,-0.010376,
0.573,-0.0088501,
0.5735,-0.00869751,
0.574,-0.00732422,
0.5745,-0.00442505,
0.575,-0.000305176,
0.5755,0.00137329,
0.576,0.000457764,
0.5765,-0.0038147,
0.577,-0.00518799,
0.5775,-0.00427246,
0.578,-0.00198364,
0.5785,-0.00137329,
0.579,-0.00289917,
0.5795,-0.00244141,
0.58,0,
0.5805,0.000915527,
0.581,-0.000610352,
0.5815,-0.00213623,
0.582,0,
0.5825,0.0012207,
0.583,0.000610352,
0.5835,-0.00228882,
0.584,-0.00579834,
0.5845,-0.00823975,
0.585,-0.00473022,
0.5855,-0.000457764,
0.586,0.0012207,
0.5865,0.00228882,
0.587,0.00457764,
0.5875,0.00534058,
0.588,0.00244141,
0.5885,-0.00167847,
0.589,-0.00579834,
0.5895,-0.0100708,
0.59,-0.0160217,
0.5905,-0.0178528,
0.591,-0.0186157,
0.5915,-0.0146484,
0.592,-0.0102234,
0.5925,-0.00610352,
0.593,-0.00228882,
0.5935,0.000915527,
0.594,0.00289917,
0.5945,0.00366211,
0.595,0.00350952,
0.5955,0.00198364,
0.596,0.00137329,
0.5965,-0.000305176,
0.597,0.00167847,
0.5975,0.00656128,
0.598,0.00854492,
0.5985,0.00869751,
0.599,0.00656128,
0.5995,0.00488281,
0.6,0.00442505,
0.6005,0.00595093,
0.601,0.00823975,
0.6015,0.010376,
0.602,0.0109863,
0.6025,0.0114441,
0.603,0.0151062,
0.6035,0.0172424,
0.604,0.0160217,
0.6045,0.0117493,
0.605,0.00717163,
0.6055,0.00701904,
0.606,0.00427246,
0.6065,0.00335693,
0.607,0.00671387,
0.6075,0.00961304,
0.608,0.00854492,
0.6085,0.00732422,
0.609,0.00823975,
0.6095,0.00900269,
0.61,0.00900269,
0.6105,0.00839233,
0.611,0.00778198,
0.6115,0.00976563,
0.612,0.00808716,
0.6125,0.00183105,
0.613,0.000305176,
0.6135,0.00198364,
0.614,0.0012207,
0.6145,-0.00228882,
0.615,-0.00473022,
0.6155,-0.00488281,
0.616,-0.00793457,
0.6165,-0.0134277,
0.617,-0.0169373,
0.6175,-0.0170898,
0.618,-0.012207,
0.6185,-0.00701904,
0.619,-0.00213623,
0.6195,0.00106812,
0.62,0.00427246,
0.6205,0.00305176,
0.621,0.00427246,
0.6215,0.0100708,
0.622,0.0190735,
0.6225,0.0282288,
0.623,0.0363159,
0.6235,0.0440979,
0.624,0.0457764,
0.6245,0.0408936,
0.625,0.0323486,
0.6255,0.0213623,
0.626,0.00961304,
0.6265,0.000610352,
0.627,-0.00762939,
0.6275,-0.0100708,
0.628,-0.00732422,
0.6285,-0.00701904,
0.629,-0.010376,
0.6295,-0.015564,
0.63,-0.015564,
0.6305,-0.0131226,
0.631,-0.00854492,
0.6315,-0.00778198,
0.632,-0.01297,
0.6325,-0.0161743,
0.633,-0.0209045,
0.6335,-0.0227356,
0.634,-0.0234985,
0.6345,-0.0256348,
0.635,-0.0234985,
0.6355,-0.0201416,
0.636,-0.0192261,
0.6365,-0.0221252,
0.637,-0.0234985,
0.6375,-0.0202942,
0.638,-0.0166321,
0.6385,-0.0141907,
0.639,-0.0131226,
0.6395,-0.0114441,
0.64,-0.0111389,
0.6405,-0.012207,
0.641,-0.0131226,
0.6415,-0.0128174,
0.642,-0.012207,
0.6425,-0.0140381,
0.643,-0.0135803,
0.6435,-0.0134277,
0.644,-0.0128174,
0.6445,-0.00976563,
0.645,-0.0088501,
0.6455,-0.00976563,
0.646,-0.00869751,
0.6465,-0.0088501,
0.647,-0.0100708,
0.6475,-0.0109863,
0.648,-0.0125122,
0.6485,-0.01297,
0.649,-0.0123596,
0.6495,-0.0137329,
0.65,-0.012207,
0.6505,-0.0108337,
0.651,-0.00839233,
0.6515,-0.00518799,
0.652,-0.0062561,
0.6525,-0.00900269,
0.653,-0.00976563,
0.6535,-0.00778198,
0.654,-0.00747681,
0.6545,-0.00442505,
0.655,-0.00198364,
0.6555,-0.0012207,
0.656,-0.00335693,
0.6565,-0.00579834,
0.657,-0.0115967,
0.6575,-0.0141907,
0.658,-0.0135803,
0.6585,-0.0106812,
0.659,-0.00595093,
0.6595,-0.00411987,
0.66,-0.00427246,
0.6605,-0.00228882,
0.661,-0.00106812,
0.6615,-0.000457764,
0.662,0.0038147,
0.6625,0.00534058,
0.663,0.00183105,
0.6635,-0.00228882,
0.664,0.00335693,
0.6645,0.0117493,
0.665,0.01297,
0.6655,0.00991821,
0.666,0.00473022,
0.6665,-0.00167847,
0.667,-0.00701904,
0.6675,-0.00930786,
0.668,-0.00869751,
0.6685,-0.00671387,
0.669,-0.00427246,
0.6695,-0.00396729,
0.67,-0.00457764,
0.6705,-0.00228882,
0.671,-0.00228882,
0.6715,-0.00656128,
0.672,-0.00915527,
0.6725,-0.00717163,
0.673,0.000610352,
0.6735,0.00640869,
0.674,0.00671387,
0.6745,0.00564575,
0.675,0.00259399,
0.6755,0.000457764,
0.676,0.000305176,
0.6765,-0.00228882,
0.677,-0.00335693,
0.6775,-0.00274658,
0.678,0,
0.6785,0.00137329,
0.679,0.00411987,
0.6795,0.00732422,
0.68,0.00762939,
0.6805,0.00579834,
0.681,0.0050354,
0.6815,0.00274658,
0.682,0.00259399,
0.6825,0.00488281,
0.683,0.00579834,
0.6835,0.00610352,
0.684,0.00442505,
0.6845,0.00411987,
0.685,0.0038147,
0.6855,0.00350952,
0.686,0.00411987,
0.6865,0.00549316,
0.687,0.00640869,
0.6875,0.0100708,
0.688,0.0128174,
0.6885,0.0126648,
0.689,0.00946045,
0.6895,0.00549316,
0.69,0.00305176,
0.6905,0.00427246,
0.691,0,
0.6915,-0.00427246,
0.692,-0.00518799,
0.6925,-0.00366211,
0.693,0,
0.6935,0.00366211,
0.694,0.00671387,
0.6945,0.00656128,
0.695,0.00610352,
0.6955,0.00396729,
0.696,0.000305176,
0.6965,-0.00137329,
0.697,0.00167847,
0.6975,0.00152588,
0.698,-0.000152588,
0.6985,-0.000762939,
0.699,0.000762939,
0.6995,0.00259399,
0.7,0.00595093,
0.7005,0.00396729,
0.701,0.000762939,
0.7015,0.00106812,
0.702,0.00198364,
0.7025,-0.00167847,
0.703,-0.00518799,
0.7035,-0.00732422,
0.704,-0.00793457,
0.7045,-0.00640869,
0.705,-0.00427246,
0.7055,-0.00488281,
0.706,-0.00457764,
0.7065,-0.00640869,
0.707,-0.0108337,
0.7075,-0.010376,
0.708,-0.00656128,
0.7085,0,
0.709,0.00564575,
0.7095,0.00534058,
0.71,0.000152588,
0.7105,-0.00839233,
0.711,-0.0140381,
0.7115,-0.0160217,
0.712,-0.0161743,
0.7125,-0.0105286,
0.713,-0.0062561,
0.7135,-0.00930786,
0.714,-0.0108337,
0.7145,-0.00518799,
0.715,0.0012207,
0.7155,0.00213623,
0.716,-0.00183105,
0.7165,-0.00701904,
0.717,-0.00793457,
0.7175,0.00106812,
0.718,0.0137329,
0.7185,0.01297,
0.719,0.0050354,
0.7195,0.00213623,
0.72,0.00610352,
0.7205,0.00595093,
0.721,-0.00549316,
0.7215,-0.0195313,
0.722,-0.0302124,
0.7225,-0.0299072,
0.723,-0.0227356,
0.7235,-0.0135803,
0.724,-0.00701904,
0.7245,-0.00305176,
0.725,-0.00350952,
0.7255,-0.00610352,
0.726,-0.00671387,
0.7265,-0.00778198,
0.727,-0.00839233,
0.7275,-0.00976563,
0.728,-0.0105286,
0.7285,-0.00869751,
0.729,-0.00686646,
0.7295,-0.00640869,
0.73,-0.00778198,
0.7305,-0.00808716,
0.731,-0.00747681,
0.7315,-0.00457764,
0.732,-0.00259399,
0.7325,-0.00228882,
0.733,-0.000610352,
0.7335,-0.00259399,
0.734,-0.00442505,
0.7345,-0.00183105,
0.735,0.00228882,
0.7355,0.0038147,
0.736,0.0038147,
0.7365,0.00350952,
0.737,0.00198364,
0.7375,0.00244141,
0.738,0.00442505,
0.7385,0.0038147,
0.739,0.00259399,
0.7395,0.00198364,
0.74,0.00137329,
0.7405,0.00152588,
0.741,0.00396729,
0.7415,0.00778198,
0.742,0.0105286,
0.7425,0.0105286,
0.743,0.0088501,
0.7435,0.00595093,
0.744,0.00411987,
0.7445,0.00320435,
0.745,0.000305176,
0.7455,-0.00228882,
0.746,-0.00137329,
0.7465,-0.00167847,
0.747,-0.00228882,
0.7475,0.000457764,
0.748,0.00152588,
0.7485,0.00305176,
0.749,0.000915527,
0.7495,-0.00305176,
0.75,-0.00198364,
0.7505,-0.00137329,
0.751,-0.00335693,
0.7515,-0.00808716,
0.752,-0.0120544,
0.7525,-0.00701904,
0.753,0.00152588,
0.7535,0.00152588,
0.754,-0.00167847,
0.7545,-0.00137329,
0.755,-0.0012207,
0.7555,-0.00106812,
0.756,-0.00183105,
0.7565,-0.00534058,
0.757,-0.00930786,
0.7575,-0.0102234,
0.758,-0.00839233,
0.7585,-0.00595093,
0.759,-0.00701904,
0.7595,-0.00778198,
0.76,-0.00610352,
0.7605,-0.00473022,
0.761,-0.00595093,
0.7615,-0.00305176,
0.762,-0.00198364,
0.7625,-0.00396729,
0.763,-0.00350952,
0.7635,-0.0012207,
0.764,0.000762939,
0.7645,0.00106812,
0.765,-0.00152588,
0.7655,-0.00534058,
0.766,-0.00335693,
0.7665,0.00167847,
0.767,0.00488281,
0.7675,0.00457764,
0.768,0.00579834,
0.7685,0.00595093,
0.769,0.00457764,
0.7695,0.00488281,
0.77,0.00701904,
0.7705,0.00808716,
0.771,0.00701904,
0.7715,0.00610352,
0.772,0.00320435,
0.7725,-0.00350952,
0.773,-0.00701904,
0.7735,-0.00473022,
0.774,0.00167847,
0.7745,0.00610352,
0.775,0.00473022,
0.7755,0.00152588,
0.776,-0.00198364,
0.7765,-0.00366211,
0.777,-0.00488281,
0.7775,-0.00396729,
0.778,-0.00289917,
0.7785,-0.000762939,
0.779,-0.00228882,
0.7795,-0.00228882,
0.78,0.00106812,
0.7805,0.00518799,
0.781,0.00747681,
0.7815,0.0062561,
0.782,0.00335693,
0.7825,0.0038147,
0.783,0.00457764,
0.7835,0.00198364,
0.784,-0.00152588,
0.7845,-0.00350952,
0.785,-0.00350952,
0.7855,-0.00335693,
0.786,-0.00366211,
0.7865,-0.00427246,
0.787,-0.00717163,
0.7875,-0.00961304,
0.788,-0.0088501,
0.7885,-0.0088501,
0.789,-0.0106812,
0.7895,-0.0143433,
0.79,-0.015564,
0.7905,-0.0161743,
0.791,-0.0161743,
0.7915,-0.0166321,
0.792,-0.0143433,
0.7925,-0.0114441,
0.793,-0.0100708,
0.7935,-0.0117493,
0.794,-0.0115967,
0.7945,-0.00534058,
0.795,0.00320435,
0.7955,0.0123596,
0.796,0.0154114,
0.7965,0.01297,
0.797,0.00610352,
0.7975,0.000762939,
0.798,-0.00228882,
0.7985,-0.00366211,
0.799,-0.00549316,
0.7995,-0.00732422,
0.8,-0.00778198,
0.8005,-0.00701904,
0.801,-0.00839233,
0.8015,-0.0111389,
0.802,-0.00869751,
0.8025,-0.00427246,
0.803,-0.000305176,
0.8035,0.00228882,
0.804,0.00732422,
0.8045,0.0123596,
0.805,0.0158691,
0.8055,0.0161743,
0.806,0.015564,
0.8065,0.0131226,
0.807,0.00793457,
0.8075,0.0038147,
0.808,0.00579834,
0.8085,0.00793457,
0.809,0.00610352,
0.8095,-0.00411987,
0.81,-0.00976563,
0.8105,-0.00656128,
0.811,-0.000305176,
0.8115,-0.000457764,
0.812,-0.00244141,
0.8125,-0.00289917,
0.813,-0.00656128,
0.8135,-0.00915527,
0.814,-0.0088501,
0.8145,-0.00839233,
0.815,-0.00671387,
0.8155,-0.00640869,
0.816,-0.00778198,
0.8165,-0.00823975,
0.817,-0.00823975,
0.8175,-0.00869751,
0.818,-0.00976563,
0.8185,-0.0100708,
0.819,-0.00640869,
0.8195,-0.00274658,
0.82,-0.00106812,
0.8205,0.000457764,
0.821,-0.00106812,
0.8215,-0.00411987,
0.822,-0.00427246,
0.8225,-0.00488281,
0.823,-0.00488281,
0.8235,-0.00762939,
0.824,-0.00991821,
0.8245,-0.0108337,
0.825,-0.0108337,
0.8255,-0.0102234,
0.826,-0.00717163,
0.8265,-0.00671387,
0.827,-0.00793457,
0.8275,-0.00518799,
0.828,-0.00320435,
0.8285,-0.00198364,
0.829,-0.00289917,
0.8295,-0.00244141,
0.83,0.000305176,
0.8305,0.00106812,
0.831,0.00106812,
0.8315,-0.000305176,
0.832,-0.00106812,
0.8325,-0.00183105,
0.833,-0.00411987,
0.8335,-0.0038147,
0.834,-0.00350952,
0.8345,-0.0038147,
0.835,-0.00244141,
0.8355,-0.00106812,
0.836,-0.00289917,
0.8365,-0.00335693,
0.837,0.00228882,
0.8375,0.00900269,
0.838,0.0119019,
0.8385,0.00976563,
0.839,0.00671387,
0.8395,0.00213623,
0.84,-0.00228882,
0.8405,-0.00534058,
0.841,-0.0088501,
0.8415,-0.0143433,
0.842,-0.0184631,
0.8425,-0.0175476,
0.843,-0.0149536,
0.8435,-0.0132751,
0.844,-0.0111389,
0.8445,-0.00869751,
0.845,-0.00778198,
0.8455,-0.0100708,
0.846,-0.01297,
0.8465,-0.0160217,
0.847,-0.0144958,
0.8475,-0.0114441,
0.848,-0.00915527,
0.8485,-0.00839233,
0.849,-0.00762939,
0.8495,-0.00671387,
0.85,-0.00549316,
0.8505,-0.00457764,
0.851,-0.00595093,
0.8515,-0.00747681,
0.852,-0.00595093,
0.8525,-0.00457764,
0.853,-0.00411987,
0.8535,-0.000457764,
0.854,0.00350952,
0.8545,0.00762939,
0.855,0.0100708,
0.8555,0.00869751,
0.856,0.00762939,
0.8565,0.00808716,
0.857,0.00823975,
0.8575,0.0050354,
0.858,0.00427246,
0.8585,0.00564575,
0.859,0.00656128,
0.8595,0.00808716,
0.86,0.00900269,
0.8605,0.010376,
0.861,0.0105286,
0.8615,0.00793457,
0.862,0.00747681,
0.8625,0.00473022,
0.863,0.00259399,
0.8635,0.00213623,
0.864,0.00366211,
0.8645,0.00488281,
0.865,0.00167847,
0.8655,-0.00442505,
0.866,-0.00869751,
0.8665,-0.00701904,
0.867,-0.00579834,
0.8675,-0.0111389,
0.868,-0.0135803,
0.8685,-0.0128174,
0.869,-0.0135803,
0.8695,-0.0117493,
0.87,-0.00946045,
0.8705,-0.00839233,
0.871,-0.00778198,
0.8715,-0.00579834,
0.872,-0.00259399,
0.8725,-0.00350952,
0.873,-0.00488281,
0.8735,-0.00579834,
0.874,-0.0062561,
0.8745,-0.00793457,
0.875,-0.00701904,
0.8755,-0.00228882,
0.876,0.00274658,
0.8765,0.00823975,
0.877,0.0141907,
0.8775,0.0163269,
0.878,0.0114441,
0.8785,0.00396729,
0.879,0.000152588,
0.8795,-0.000152588,
0.88,0.00152588,
0.8805,-0.00183105,
0.881,-0.00961304,
0.8815,-0.017395,
0.882,-0.019989,
0.8825,-0.0184631,
0.883,-0.0164795,
0.8835,-0.0166321,
0.884,-0.0195313,
0.8845,-0.0218201,
0.885,-0.0201416,
0.8855,-0.0137329,
0.886,-0.00442505,
0.8865,0.00244141,
0.887,0.00656128,
0.8875,0.0112915,
0.888,0.0192261,
0.8885,0.0254822,
0.889,0.0257874,
0.8895,0.0242615,
0.89,0.0238037,
0.8905,0.0234985,
0.891,0.017395,
0.8915,0.0102234,
0.892,0.00350952,
0.8925,0.00152588,
0.893,0.00808716,
0.8935,0.0175476,
0.894,0.0227356,
0.8945,0.0202942,
0.895,0.0175476,
0.8955,0.01297,
0.896,0.0100708,
0.8965,0.0109863,
0.897,0.0115967,
0.8975,0.00854492,
0.898,0.00808716,
0.8985,0.00640869,
0.899,0.00198364,
0.8995,-0.00213623,
0.9,-0.00488281,
0.9005,-0.0062561,
0.901,-0.00976563,
0.9015,-0.0123596,
0.902,-0.0125122,
0.9025,-0.00808716,
0.903,-0.000762939,
0.9035,0.00320435,
0.904,-0.000305176,
0.9045,-0.00595093,
0.905,-0.00793457,
0.9055,-0.00869751,
0.906,-0.0102234,
0.9065,-0.01297,
0.907,-0.0149536,
0.9075,-0.015564,
0.908,-0.0149536,
0.9085,-0.0183105,
0.909,-0.0187683,
0.9095,-0.0170898,
0.91,-0.0144958,
0.9105,-0.012207,
0.911,-0.0134277,
0.9115,-0.0151062,
0.912,-0.015564,
0.9125,-0.0149536,
0.913,-0.0123596,
0.9135,-0.0114441,
0.914,-0.0117493,
0.9145,-0.00915527,
0.915,-0.00915527,
0.9155,-0.0120544,
0.916,-0.0126648,
0.9165,-0.0119019,
0.917,-0.0100708,
0.9175,-0.00778198,
0.918,-0.00793457,
0.9185,-0.00762939,
0.919,-0.00473022,
0.9195,-0.0038147,
0.92,-0.00457764,
0.9205,-0.00350952,
0.921,-0.00167847,
0.9215,-0.000305176,
0.922,-0.00259399,
0.9225,-0.00518799,
0.923,-0.00564575,
0.9235,-0.00549316,
0.924,-0.0038147,
0.9245,-0.00183105,
0.925,-0.000915527,
0.9255,0.000915527,
0.926,0.0012207,
0.9265,0,
0.927,0.000457764,
0.9275,-0.000762939,
0.928,-0.00320435,
0.9285,-0.00473022,
0.929,-0.00366211,
0.9295,-0.00137329,
0.93,0.000762939,
0.9305,0.00259399,
0.931,0.00213623,
0.9315,0.00305176,
0.932,0.00366211,
0.9325,0.00411987,
0.933,0.00488281,
0.9335,0.00259399,
0.934,0.000610352,
0.9345,0.000457764,
0.935,-0.00228882,
0.9355,-0.00335693,
0.936,-0.0038147,
0.9365,-0.00442505,
0.937,-0.000762939,
0.9375,0.0038147,
0.938,-0.00137329,
0.9385,-0.0050354,
0.939,-0.0088501,
0.9395,-0.00854492,
0.94,-0.00656128,
0.9405,-0.00579834,
0.941,-0.0038147,
0.9415,-0.00305176,
0.942,-0.00640869,
0.9425,-0.00793457,
0.943,-0.00778198,
0.9435,-0.00473022,
0.944,-0.00366211,
0.9445,-0.00350952,
0.945,-0.00320435,
0.9455,-0.00228882,
0.946,-0.00274658,
0.9465,-0.0012207,
0.947,0.000305176,
0.9475,-0.000610352,
0.948,-0.000915527,
0.9485,-0.0012207,
0.949,-0.00274658,
0.9495,-0.00274658,
0.95,-0.000305176,
0.9505,-0.00106812,
0.951,-0.00183105,
0.9515,0.000152588,
0.952,0.000610352,
0.9525,-0.00106812,
0.953,-0.00183105,
0.9535,0.000152588,
0.954,0.000915527,
0.9545,0.00198364,
0.955,0.00320435,
0.9555,0.00350952,
0.956,0.00427246,
0.9565,0.00396729,
0.957,0.00305176,
0.9575,0,
0.958,-0.00274658,
0.9585,-0.00366211,
0.959,-0.00564575,
0.9595,-0.00762939,
0.96,-0.00808716,
0.9605,-0.00656128,
0.961,-0.00656128,
0.9615,-0.00778198,
0.962,-0.00808716,
0.9625,-0.00762939,
0.963,-0.00457764,
0.9635,-0.00183105,
0.964,-0.000762939,
0.9645,0.00137329,
0.965,0.00457764,
0.9655,0.00564575,
0.966,0.0038147,
0.9665,0.00183105,
0.967,0.000305176,
0.9675,0.00244141,
0.968,0.0088501,
0.9685,0.0135803,
0.969,0.0146484,
0.9695,0.0152588,
0.97,0.0138855,
0.9705,0.01297,
0.971,0.00900269,
0.9715,0.00289917,
0.972,-0.0012207,
0.9725,0.00244141,
0.973,0.00854492,
0.9735,0.00579834,
0.974,-0.0038147,
0.9745,-0.0105286,
0.975,-0.0114441,
0.9755,-0.00488281,
0.976,0.000915527,
0.9765,0.000457764,
0.977,-0.00427246,
0.9775,-0.00762939,
0.978,-0.00640869,
0.9785,-0.000305176,
0.979,0.0050354,
0.9795,0.00259399,
0.98,-0.00106812,
0.9805,-0.00732422,
0.981,-0.0137329,
0.9815,-0.0177002,
0.982,-0.017395,
0.9825,-0.0146484,
0.983,-0.0161743,
0.9835,-0.0192261,
0.984,-0.0202942,
0.9845,-0.0184631,
0.985,-0.0157166,
0.9855,-0.012207,
0.986,-0.012207,
0.9865,-0.0175476,
0.987,-0.0254822,
0.9875,-0.0299072,
0.988,-0.0317383,
0.9885,-0.0242615,
0.989,-0.0144958,
0.9895,-0.0119019,
0.99,-0.0117493,
0.9905,-0.00793457,
0.991,-0.0012207,
0.9915,0.00183105,
0.992,-0.00167847,
0.9925,-0.0109863,
0.993,-0.0189209,
0.9935,-0.0248718,
0.994,-0.0224304,
0.9945,-0.0157166,
0.995,-0.0102234,
0.9955,-0.000305176,
0.996,0.0178528,
0.9965,0.0364685,
0.997,0.030365,
0.9975,0.0114441,
0.998,0.00900269,
0.9985,0.0218201,
0.999,0.0280762,
0.9995,0.0288391,
1,0.027771,
1.0005,0.0250244,
1.001,0.0231934,
1.0015,0.0198364,
1.002,0.012207,
1.0025,0.00869751,
1.003,0.00930786,
1.0035,0.00152588,
1.004,-0.0131226,
1.0045,-0.0212097,
1.005,-0.0242615,
1.0055,-0.0231934,
1.006,-0.0192261,
1.0065,-0.0164795,
1.007,-0.0158691,
1.0075,-0.0157166,
1.008,-0.0132751,
1.0085,-0.00976563,
1.009,-0.00900269,
1.0095,-0.0100708,
1.01,-0.0108337,
1.0105,-0.0105286,
1.011,-0.00900269,
1.0115,-0.00946045,
1.012,-0.0112915,
1.0125,-0.00900269,
1.013,-0.00671387,
1.0135,-0.00595093,
1.014,-0.00427246,
1.0145,-0.00366211,
1.015,-0.00289917,
1.0155,-0.00259399,
1.016,-0.00488281,
1.0165,-0.00488281,
1.017,-0.00305176,
1.0175,0.00213623,
1.018,0.0050354,
1.0185,0.00213623,
1.019,-0.00549316,
1.0195,-0.0109863,
1.02,-0.0160217,
1.0205,-0.0177002,
1.021,-0.017395,
1.0215,-0.0169373,
1.022,-0.0259399,
1.0225,-0.0328064,
1.023,-0.0238037,
1.0235,0.00152588,
1.024,0.018158,
1.0245,0.0106812,
1.025,0.00198364,
1.0255,0.0108337,
1.026,0.0244141,
1.0265,0.0276184,
1.027,0.0192261,
1.0275,0.00854492,
1.028,0.00549316,
1.0285,0.00854492,
1.029,0.0137329,
1.0295,0.014801,
1.03,0.010376,
1.0305,0.00701904,
1.031,0.0050354,
1.0315,-0.000457764,
1.032,-0.00762939,
1.0325,-0.00854492,
1.033,-0.00747681,
1.0335,-0.0102234,
1.034,-0.0114441,
1.0345,-0.00854492,
1.035,-0.00457764,
1.0355,-0.00213623,
1.036,-0.000762939,
1.0365,0.00274658,
1.037,0.0050354,
1.0375,0.00442505,
1.038,0.0038147,
1.0385,0.00366211,
1.039,0.00457764,
1.0395,0.00747681,
1.04,0.00808716,
1.0405,0.00610352,
1.041,0.00289917,
1.0415,0.00152588,
1.042,0.000610352,
1.0425,-0.00167847,
1.043,-0.00198364,
1.0435,-0.00289917,
1.044,-0.00335693,
1.0445,-0.0038147,
1.045,-0.00549316,
1.0455,-0.00610352,
1.046,-0.00289917,
1.0465,0.00106812,
1.047,0.00579834,
1.0475,0.0102234,
1.048,0.0132751,
1.0485,0.0151062,
1.049,0.0140381,
1.0495,0.0128174,
1.05,0.010376,
1.0505,0.0111389,
1.051,0.0134277,
1.0515,0.0164795,
1.052,0.0141907,
1.0525,0.0115967,
1.053,0.0134277,
1.0535,0.0109863,
1.054,0.00747681,
1.0545,0.0050354,
1.055,0.00427246,
1.0555,0.00579834,
1.056,0.00595093,
1.0565,0.00778198,
1.057,0.0128174,
1.0575,0.0161743,
1.058,0.0138855,
1.0585,0.00976563,
1.059,0.00671387,
1.0595,0.00427246,
1.06,0.00259399,
1.0605,0.00244141,
1.061,0.00457764,
1.0615,0.00411987,
1.062,0.00335693,
1.0625,0.00244141,
1.063,0.0012207,
1.0635,-0.000152588,
1.064,-0.000305176,
1.0645,0.0012207,
1.065,0.00305176,
1.0655,0.00167847,
1.066,-0.000305176,
1.0665,-0.000762939,
1.067,-0.00137329,
1.0675,-0.00320435,
1.068,-0.00534058,
1.0685,-0.00640869,
1.069,-0.00289917,
1.0695,-0.00213623,
1.07,-0.00442505,
1.0705,-0.00564575,
1.071,-0.00579834,
1.0715,-0.00549316,
1.072,-0.00228882,
1.0725,-0.00106812,
1.073,0.00137329,
1.0735,0.00259399,
1.074,0.000762939,
1.0745,-0.00488281,
1.075,-0.00930786,
1.0755,-0.0109863,
1.076,-0.0100708,
1.0765,-0.00732422,
1.077,-0.00732422,
1.0775,-0.00976563,
1.078,-0.0128174,
1.0785,-0.0143433,
1.079,-0.0135803,
1.0795,-0.0132751,
1.08,-0.0134277,
1.0805,-0.0134277,
1.081,-0.0154114,
1.0815,-0.0167847,
1.082,-0.0158691,
1.0825,-0.0140381,
1.083,-0.0135803,
1.0835,-0.0137329,
1.084,-0.0163269,
1.0845,-0.0234985,
1.085,-0.0270081,
1.0855,-0.0216675,
1.086,-0.0160217,
1.0865,-0.0161743,
1.087,-0.0164795,
1.0875,-0.0132751,
1.088,-0.00778198,
1.0885,-0.00457764,
1.089,-0.00320435,
1.0895,-0.00137329,
1.09,0.00152588,
1.0905,0.00564575,
1.091,0.0117493,
1.0915,0.0210571,
1.092,0.0302124,
1.0925,0.0398254,
1.093,0.043335,
1.0935,0.0424194,
1.094,0.038147,
1.0945,0.0312805,
1.095,0.0212097,
1.0955,0.0100708,
1.096,0.00305176,
1.0965,0.000305176,
1.097,0.000457764,
1.0975,-0.00137329,
1.098,-0.00457764,
1.0985,-0.00488281,
1.099,-0.00183105,
1.0995,0.000915527,
1.1,0.00152588,
1.1005,-0.00488281,
1.101,-0.010376,
1.1015,-0.0115967,
1.102,-0.0132751,
1.1025,-0.0151062,
1.103,-0.0157166,
1.1035,-0.0170898,
1.104,-0.0210571,
1.1045,-0.0230408,
1.105,-0.0241089,
1.1055,-0.0210571,
1.106,-0.0172424,
1.1065,-0.0169373,
1.107,-0.020752,
1.1075,-0.0209045,
1.108,-0.020752,
1.1085,-0.0202942,
1.109,-0.0190735,
1.1095,-0.018158,
1.11,-0.0183105,
1.1105,-0.0183105,
1.111,-0.0184631,
1.1115,-0.0201416,
1.112,-0.0222778,
1.1125,-0.0228882,
1.113,-0.0224304,
1.1135,-0.0190735,
1.114,-0.014801,
1.1145,-0.0132751,
1.115,-0.0119019,
1.1155,-0.00808716,
1.116,-0.00686646,
1.1165,-0.00335693,
1.117,0.00366211,
1.1175,0.00549316,
1.118,-0.00106812,
1.1185,-0.0062561,
1.119,-0.00762939,
1.1195,-0.00823975,
1.12,-0.0180054,
1.1205,-0.0364685,
1.121,-0.045166,
1.1215,-0.0349426,
1.122,-0.0218201,
1.1225,-0.0131226,
1.123,-0.010376,
1.1235,-0.0140381,
1.124,-0.0216675,
1.1245,-0.0242615,
1.125,-0.022583,
1.1255,-0.0241089,
1.126,-0.0204468,
1.1265,-0.0108337,
1.127,-0.00930786,
1.1275,-0.00793457,
1.128,0.00595093,
1.1285,0.0213623,
1.129,0.0300598,
1.1295,0.0370789,
1.13,0.0419617,
1.1305,0.0471497,
1.131,0.0512695,
1.1315,0.0445557,
1.132,0.0271606,
1.1325,0.00991821,
1.133,0.00259399,
1.1335,-0.000610352,
1.134,-0.00137329,
1.1345,0.00564575,
1.135,0.0112915,
1.1355,0.00717163,
1.136,-0.000915527,
1.1365,-0.0038147,
1.137,-0.000610352,
1.1375,0.00534058,
1.138,0.00747681,
1.1385,0.0111389,
1.139,0.0152588,
1.1395,0.0134277,
1.14,0.00900269,
1.1405,0.0088501,
1.141,0.00991821,
1.1415,0.0088501,
1.142,0.00671387,
1.1425,0.00427246,
1.143,0.00198364,
1.1435,0.00183105,
1.144,0.000610352,
1.1445,-0.00183105,
1.145,-0.00198364,
1.1455,-0.00244141,
1.146,-0.00244141,
1.1465,-0.00488281,
1.147,-0.00579834,
1.1475,-0.00686646,
1.148,-0.00991821,
1.1485,-0.0125122,
1.149,-0.0125122,
1.1495,-0.0111389,
1.15,-0.00915527,
1.1505,-0.00823975,
1.151,-0.00869751,
1.1515,-0.0102234,
1.152,-0.0108337,
1.1525,-0.0117493,
1.153,-0.0105286,
1.1535,-0.0132751,
1.154,-0.0175476,
1.1545,-0.0151062,
1.155,-0.0102234,
1.1555,-0.00717163,
1.156,-0.0062561,
1.1565,-0.00732422,
1.157,-0.00610352,
1.1575,-0.00595093,
1.158,-0.00610352,
1.1585,-0.0088501,
1.159,-0.0128174,
1.1595,-0.0114441,
1.16,-0.010376,
1.1605,-0.0117493,
1.161,-0.0115967,
1.1615,-0.00823975,
1.162,-0.00808716,
1.1625,-0.00823975,
1.163,-0.00762939,
1.1635,-0.00640869,
1.164,-0.00335693,
1.1645,0.000305176,
1.165,0.000305176,
1.1655,-0.00427246,
1.166,-0.00610352,
1.1665,-0.00152588,
1.167,0.00427246,
1.1675,0.00427246,
1.168,-0.00152588,
1.1685,-0.00259399,
1.169,0.0062561,
1.1695,0.0205994,
1.17,0.0318909,
1.1705,0.0357056,
1.171,0.0341797,
1.1715,0.0306702,
1.172,0.0218201,
1.1725,0.0062561,
1.173,-0.00793457,
1.1735,-0.0106812,
1.174,-0.00656128,
1.1745,-0.00732422,
1.175,-0.010376,
1.1755,-0.00762939,
1.176,-0.00137329,
1.1765,-0.000762939,
1.177,-0.00686646,
1.1775,-0.0137329,
1.178,-0.0158691,
1.1785,-0.0125122,
1.179,-0.0088501,
1.1795,-0.00656128,
1.18,-0.00595093,
1.1805,-0.00732422,
1.181,-0.0125122,
1.1815,-0.017395,
1.182,-0.0151062,
1.1825,-0.00823975,
1.183,-0.00488281,
1.1835,-0.00549316,
1.184,-0.00473022,
1.1845,-0.00335693,
1.185,-0.00457764,
1.1855,-0.00411987,
1.186,-0.00442505,
1.1865,-0.00671387,
1.187,-0.00610352,
1.1875,-0.00488281,
1.188,-0.00518799,
1.1885,-0.00701904,
1.189,-0.00900269,
1.1895,-0.00869751,
1.19,-0.00839233,
1.1905,-0.00808716,
1.191,-0.00579834,
1.1915,-0.00244141,
1.192,-0.000915527,
1.1925,0.000762939,
1.193,0.00183105,
1.1935,0.0050354,
1.194,0.00564575,
1.1945,0.00610352,
1.195,0.00396729,
1.1955,0.00183105,
1.196,0.000305176,
1.1965,0.00137329,
1.197,0.00411987,
1.1975,0.0062561,
1.198,0.0050354,
1.1985,0.0038147,
1.199,0.00228882,
1.1995,0.00259399,
1.2,0.000610352,
1.2005,-0.000762939,
1.201,-0.00213623,
1.2015,-0.00595093,
1.202,-0.0106812,
1.2025,-0.0114441,
1.203,-0.0135803,
1.2035,-0.0163269,
1.204,-0.015564,
1.2045,-0.0128174,
1.205,-0.00854492,
1.2055,-0.00732422,
1.206,-0.00549316,
1.2065,-0.0012207,
1.207,-0.00289917,
1.2075,-0.0038147,
1.208,0,
1.2085,0.00259399,
1.209,0.00137329,
1.2095,-0.00228882,
1.21,-0.00427246,
1.2105,-0.000762939,
1.211,0.00350952,
1.2115,0.0038147,
1.212,0.00137329,
1.2125,-0.00198364,
1.213,-0.00335693,
1.2135,-0.00198364,
1.214,0.00244141,
1.2145,0.00534058,
1.215,0.00564575,
1.2155,0.00442505,
1.216,0.00350952,
1.2165,0.00320435,
1.217,0.00732422,
1.2175,0.00976563,
1.218,0.00854492,
1.2185,0.00335693,
1.219,-0.0038147,
1.2195,-0.00854492,
1.22,-0.00793457,
1.2205,-0.00457764,
1.221,-0.00228882,
1.2215,-0.00350952,
1.222,-0.00534058,
1.2225,-0.00534058,
1.223,-0.00350952,
1.2235,-0.00213623,
1.224,-0.00366211,
1.2245,-0.00732422,
1.225,-0.00915527,
1.2255,-0.00808716,
1.226,-0.0105286,
1.2265,-0.0144958,
1.227,-0.0164795,
1.2275,-0.0166321,
1.228,-0.0253296,
1.2285,-0.035553,
1.229,-0.0358582,
1.2295,-0.0306702,
1.23,-0.0271606,
1.2305,-0.0274658,
1.231,-0.0286865,
1.2315,-0.0323486,
1.232,-0.0358582,
1.2325,-0.0350952,
1.233,-0.030365,
1.2335,-0.0248718,
1.234,-0.0198364,
1.2345,-0.0172424,
1.235,-0.0125122,
1.2355,-0.0112915,
1.236,-0.00839233,
1.2365,0.000305176,
1.237,0.00854492,
1.2375,0.00869751,
1.238,0.00686646,
1.2385,0.0119019,
1.239,0.0245667,
1.2395,0.0401306,
1.24,0.0546265,
1.2405,0.0714111,
1.241,0.0862122,
1.2415,0.0947571,
1.242,0.0952148,
1.2425,0.093689,
1.243,0.0909424,
1.2435,0.0843811,
1.244,0.0753784,
1.2445,0.065155,
1.245,0.0502014,
1.2455,0.0224304,
1.246,-0.0134277,
1.2465,-0.0416565,
1.247,-0.0538635,
1.2475,-0.0556946,
1.248,-0.0561523,
1.2485,-0.0518799,
1.249,-0.0430298,
1.2495,-0.0323486,
1.25,-0.0212097,
1.2505,-0.00442505,
1.251,0.0195313,
1.2515,0.0340271,
1.252,0.0335693,
1.2525,0.0317383,
1.253,0.0366211,
1.2535,0.0384521,
1.254,0.0274658,
1.2545,0.0088501,
1.255,-0.00289917,
1.2555,-0.00320435,
1.256,-0.00778198,
1.2565,-0.0169373,
1.257,-0.0175476,
1.2575,-0.00869751,
1.258,-0.00244141,
1.2585,-0.00427246,
1.259,-0.00488281,
1.2595,-0.00518799,
1.26,-0.00762939,
1.2605,-0.00976563,
1.261,-0.0119019,
1.2615,-0.0177002,
1.262,-0.0236511,
1.2625,-0.0271606,
1.263,-0.027771,
1.2635,-0.0274658,
1.264,-0.0253296,
1.2645,-0.0218201,
1.265,-0.0212097,
1.2655,-0.0204468,
1.266,-0.018158,
1.2665,-0.0154114,
1.267,-0.0106812,
1.2675,-0.00930786,
1.268,-0.0112915,
1.2685,-0.00915527,
1.269,-0.00305176,
1.2695,-0.00747681,
1.27,-0.0228882,
1.2705,-0.0242615,
1.271,-0.0146484,
1.2715,-0.00854492,
1.272,-0.00961304,
1.2725,-0.0105286,
1.273,-0.0102234,
1.2735,-0.0131226,
1.274,-0.0164795,
1.2745,-0.0187683,
1.275,-0.0219727,
1.2755,-0.0233459,
1.276,-0.0227356,
1.2765,-0.0152588,
1.277,-0.00762939,
1.2775,-0.00244141,
1.278,-0.00137329,
1.2785,-0.00228882,
1.279,-0.00793457,
1.2795,-0.0125122,
1.28,-0.00778198,
1.2805,0.00854492,
1.281,0.0274658,
1.2815,0.0424194,
1.282,0.0462341,
1.2825,0.0474548,
1.283,0.0532532,
1.2835,0.0558472,
1.284,0.0486755,
1.2845,0.0370789,
1.285,0.018158,
1.2855,-0.00366211,
1.286,-0.0187683,
1.2865,-0.0233459,
1.287,-0.0224304,
1.2875,-0.0248718,
1.288,-0.0317383,
1.2885,-0.032196,
1.289,-0.0238037,
1.2895,-0.0177002,
1.29,-0.0152588,
1.2905,-0.0102234,
1.291,-0.00320435,
1.2915,0.000305176,
1.292,0.00152588,
1.2925,0.00274658,
1.293,0.00183105,
1.2935,0.00106812,
1.294,-0.00198364,
1.2945,-0.0105286,
1.295,-0.0202942,
1.2955,-0.0268555,
1.296,-0.0288391,
1.2965,-0.0267029,
1.297,-0.0247192,
1.2975,-0.019989,
1.298,-0.0193787,
1.2985,-0.0218201,
1.299,-0.0218201,
1.2995,-0.0189209,
1.3,-0.0152588,
1.3005,-0.0111389,
1.301,-0.0114441,
1.3015,-0.0132751,
1.302,-0.0161743,
1.3025,-0.0146484,
1.303,-0.010376,
1.3035,-0.00900269,
1.304,-0.00747681,
1.3045,-0.00183105,
1.305,0.00900269,
1.3055,0.0186157,
1.306,0.0238037,
1.3065,0.0233459,
1.307,0.020752,
1.3075,0.0152588,
1.308,0.00595093,
1.3085,-0.00366211,
1.309,-0.0151062,
1.3095,-0.0201416,
1.31,-0.0164795,
1.3105,-0.00595093,
1.311,0.00396729,
1.3115,0.00854492,
1.312,0.00549316,
1.3125,-0.00106812,
1.313,-0.00289917,
1.3135,0.00305176,
1.314,0.0128174,
1.3145,0.0244141,
1.315,0.0315857,
1.3155,0.0212097,
1.316,0.00198364,
1.3165,-0.00396729,
1.317,0.00244141,
1.3175,0.010376,
1.318,0.0125122,
1.3185,0.00808716,
1.319,0,
1.3195,-0.00595093,
1.32,-0.00930786,
1.3205,-0.00946045,
1.321,-0.0062561,
1.3215,-0.00793457,
1.322,-0.0169373,
1.3225,-0.0248718,
1.323,-0.0216675,
1.3235,-0.0183105,
1.324,-0.0183105,
1.3245,-0.0143433,
1.325,-0.0112915,
1.3255,-0.00946045,
1.326,-0.0114441,
1.3265,-0.0166321,
1.327,-0.0192261,
1.3275,-0.0128174,
1.328,-0.00900269,
1.3285,-0.0117493,
1.329,-0.0128174,
1.3295,-0.00854492,
1.33,-0.00717163,
1.3305,-0.00930786,
1.331,-0.00869751,
1.3315,-0.00900269,
1.332,-0.010376,
1.3325,-0.00976563,
1.333,-0.00671387,
1.3335,-0.00427246,
1.334,-0.0012207,
1.3345,0.00778198,
1.335,0.0164795,
1.3355,0.0161743,
1.336,0.00778198,
1.3365,-0.00366211,
1.337,-0.0111389,
1.3375,-0.015564,
1.338,-0.015564,
1.3385,-0.00869751,
1.339,-0.00106812,
1.3395,-0.000915527,
1.34,-0.00320435,
1.3405,-0.00488281,
1.341,-0.00579834,
1.3415,-0.00350952,
1.342,0.00427246,
1.3425,0.00900269,
1.343,0.00854492,
1.3435,0.00762939,
1.344,0.00839233,
1.3445,0.00854492,
1.345,0.0112915,
1.3455,0.0186157,
1.346,0.0241089,
1.3465,0.0276184,
1.347,0.0291443,
1.3475,0.0238037,
1.348,0.0115967,
1.3485,0.000305176,
1.349,-0.0108337,
1.3495,-0.0186157,
1.35,-0.0193787,
1.3505,-0.00671387,
1.351,0.00778198,
1.3515,0.0128174,
1.352,0.0161743,
1.3525,0.0241089,
1.353,0.0230408,
1.3535,0.0146484,
1.354,0.00915527,
1.3545,0.00762939,
1.355,0.00534058,
1.3555,0.0050354,
1.356,0.00930786,
1.3565,0.0164795,
1.357,0.018158,
1.3575,0.0123596,
1.358,0.00579834,
1.3585,0.00244141,
1.359,0,
1.3595,-0.0062561,
1.36,-0.0144958,
1.3605,-0.0164795,
1.361,-0.0143433,
1.3615,-0.0117493,
1.362,-0.0115967,
1.3625,-0.0125122,
1.363,-0.0141907,
1.3635,-0.0166321,
1.364,-0.0163269,
1.3645,-0.0132751,
1.365,-0.0050354,
1.3655,0.00274658,
1.366,0.00305176,
1.3665,-0.00213623,
1.367,-0.00717163,
1.3675,-0.0108337,
1.368,-0.0137329,
1.3685,-0.0134277,
1.369,-0.00991821,
1.3695,-0.00350952,
1.37,0.000305176,
1.3705,0.00289917,
1.371,0.00778198,
1.3715,0.0126648,
1.372,0.014801,
1.3725,0.0115967,
1.373,0.00137329,
1.3735,-0.00808716,
1.374,-0.0131226,
1.3745,-0.0167847,
1.375,-0.0169373,
1.3755,-0.0128174,
1.376,-0.0050354,
1.3765,0.000915527,
1.377,-0.00137329,
1.3775,-0.00534058,
1.378,-0.00839233,
1.3785,-0.00640869,
1.379,-0.000610352,
1.3795,0.00915527,
1.38,0.0177002,
1.3805,0.0244141,
1.381,0.0289917,
1.3815,0.0317383,
1.382,0.0306702,
1.3825,0.0270081,
1.383,0.0238037,
1.3835,0.019989,
1.384,0.0111389,
1.3845,-0.000915527,
1.385,-0.00900269,
1.3855,-0.00823975,
1.386,-0.00442505,
1.3865,-0.00152588,
1.387,0.00274658,
1.3875,0.0112915,
1.388,0.0138855,
1.3885,0.00473022,
1.389,-0.00793457,
1.3895,-0.0160217,
1.39,-0.0146484,
1.3905,-0.00747681,
1.391,0.000915527,
1.3915,0.00762939,
1.392,0.00549316,
1.3925,-0.00869751,
1.393,-0.0245667,
1.3935,-0.0343323,
1.394,-0.0360107,
1.3945,-0.0328064,
1.395,-0.0343323,
1.3955,-0.040741,
1.396,-0.040741,
1.3965,-0.0308228,
1.397,-0.0234985,
1.3975,-0.0205994,
1.398,-0.0183105,
1.3985,-0.0154114,
1.399,-0.0119019,
1.3995,-0.010376,
1.4,-0.00701904,
1.4005,-0.00152588,
1.401,-0.000915527,
1.4015,0,
1.402,0.00183105,
1.4025,0.000152588,
1.403,-0.00167847,
1.4035,-0.00595093,
1.404,-0.0114441,
1.4045,-0.0134277,
1.405,-0.00869751,
1.4055,-0.00396729,
1.406,-0.00579834,
1.4065,-0.00930786,
1.407,-0.00961304,
1.4075,-0.0062561,
1.408,-0.00106812,
1.4085,0.00396729,
1.409,0.00534058,
1.4095,0.00427246,
1.41,0.00396729,
1.4105,0.0038147,
1.411,0.00518799,
1.4115,0.0108337,
1.412,0.0196838,
1.4125,0.0276184,
1.413,0.0350952,
1.4135,0.0392151,
1.414,0.0320435,
1.4145,0.0195313,
1.415,0.0157166,
1.4155,0.0190735,
1.416,0.017395,
1.4165,0.00320435,
1.417,-0.010376,
1.4175,-0.00915527,
1.418,-0.00778198,
1.4185,-0.0146484,
1.419,-0.0213623,
1.4195,-0.0198364,
1.42,-0.0152588,
1.4205,-0.0144958,
1.421,-0.0158691,
1.4215,-0.0088501,
1.422,0.00350952,
1.4225,0.00411987,
1.423,-0.0111389,
1.4235,-0.0270081,
1.424,-0.0328064,
1.4245,-0.0306702,
1.425,-0.0265503,
1.4255,-0.0230408,
1.426,-0.0195313,
1.4265,-0.0183105,
1.427,-0.0166321,
1.4275,-0.0114441,
1.428,-0.0105286,
1.4285,-0.0106812,
1.429,-0.0119019,
1.4295,-0.0163269,
1.43,-0.0163269,
1.4305,-0.0112915,
1.431,-0.00610352,
1.4315,-0.00579834,
1.432,-0.00701904,
1.4325,-0.0105286,
1.433,-0.0138855,
1.4335,-0.0140381,
1.434,-0.00808716,
1.4345,0.00106812,
1.435,0.00534058,
1.4355,0.00778198,
1.436,0.00976563,
1.4365,0.0138855,
1.437,0.0210571,
1.4375,0.0283813,
1.438,0.0274658,
1.4385,0.0245667,
1.439,0.0164795,
1.4395,0.00167847,
1.44,-0.0140381,
1.4405,-0.0189209,
1.441,-0.0175476,
1.4415,-0.0192261,
1.442,-0.0280762,
1.4425,-0.0379944,
1.443,-0.0386047,
1.4435,-0.0352478,
1.444,-0.0332642,
1.4445,-0.0248718,
1.445,-0.0109863,
1.4455,0.000305176,
1.446,0.00457764,
1.4465,0.00427246,
1.447,0.00244141,
1.4475,0.0038147,
1.448,0.0062561,
1.4485,0.00350952,
1.449,-0.0117493,
1.4495,-0.0202942,
1.45,-0.0102234,
1.4505,0.000610352,
1.451,-0.000152588,
1.4515,-0.00305176,
1.452,-0.00762939,
1.4525,-0.0115967,
1.453,-0.0119019,
1.4535,-0.0100708,
1.454,-0.012207,
1.4545,-0.0178528,
1.455,-0.0169373,
1.4555,-0.00534058,
1.456,0.00610352,
1.4565,0.00778198,
1.457,0.0050354,
1.4575,0.00320435,
1.458,0.00640869,
1.4585,0.0108337,
1.459,0.0128174,
1.4595,0.0177002,
1.46,0.0241089,
1.4605,0.0270081,
1.461,0.0257874,
1.4615,0.020752,
1.462,0.0154114,
1.4625,0.0123596,
1.463,0.0088501,
1.4635,0.000762939,
1.464,-0.00518799,
1.4645,-0.0012207,
1.465,0.0137329,
1.4655,0.0337219,
1.466,0.0415039,
1.4665,0.032196,
1.467,0.0189209,
1.4675,0.0102234,
1.468,0.00976563,
1.4685,0.0160217,
1.469,0.0233459,
1.4695,0.0257874,
1.47,0.0204468,
1.4705,0.00808716,
1.471,-0.00335693,
1.4715,-0.0135803,
1.472,-0.0274658,
1.4725,-0.0434875,
1.473,-0.0511169,
1.4735,-0.0434875,
1.474,-0.0305176,
1.4745,-0.0198364,
1.475,-0.0152588,
1.4755,-0.00930786,
1.476,-0.00305176,
1.4765,-0.000610352,
1.477,-0.00244141,
1.4775,-0.00244141,
1.478,-0.00167847,
1.4785,-0.000762939,
1.479,0.000762939,
1.4795,0.000457764,
1.48,-0.00106812,
1.4805,0.00106812,
1.481,0.00411987,
1.4815,0.00396729,
1.482,0.00167847,
1.4825,-0.000762939,
1.483,-0.00396729,
1.4835,-0.0109863,
1.484,-0.0189209,
1.4845,-0.0196838,
1.485,-0.0144958,
1.4855,-0.00213623,
1.486,0.0105286,
1.4865,0.0190735,
1.487,0.0268555,
1.4875,0.0392151,
1.488,0.0523376,
1.4885,0.0569153,
1.489,0.0556946,
1.4895,0.0514221,
1.49,0.0445557,
1.4905,0.0331116,
1.491,0.0152588,
1.4915,-0.00366211,
1.492,-0.0172424,
1.4925,-0.0236511,
1.493,-0.0280762,
1.4935,-0.0376892,
1.494,-0.0456238,
1.4945,-0.0494385,
1.495,-0.0431824,
1.4955,-0.0282288,
1.496,-0.0149536,
1.4965,-0.0108337,
1.497,-0.015564,
1.4975,-0.0231934,
1.498,-0.0228882,
1.4985,-0.00900269,
1.499,0.0012207,
1.4995,0.000457764,
1.5,-0.000915527,
1.5005,0.0160217,
1.501,0.0404358,
1.5015,0.0523376,
1.502,0.0561523,
1.5025,0.0653076,
1.503,0.070343,
1.5035,0.0575256,
1.504,0.0331116,
1.5045,0.0193787,
1.505,0.0241089,
1.5055,0.0274658,
1.506,0.0157166,
1.5065,0.000152588,
1.507,0.00152588,
1.5075,0.0109863,
1.508,0.0111389,
1.5085,0.00198364,
1.509,-0.0158691,
1.5095,-0.0448608,
1.51,-0.0653076,
1.5105,-0.065918,
1.511,-0.0694275,
1.5115,-0.0785828,
1.512,-0.0834656,
1.5125,-0.0802612,
1.513,-0.0744629,
1.5135,-0.0656128,
1.514,-0.0566101,
1.5145,-0.0483704,
1.515,-0.0408936,
1.5155,-0.0325012,
1.516,-0.020752,
1.5165,-0.0134277,
1.517,-0.00869751,
1.5175,0.000915527,
1.518,0.00946045,
1.5185,0.00930786,
1.519,0.000457764,
1.5195,-0.0160217,
1.52,-0.0291443,
1.5205,-0.0262451,
1.521,-0.0117493,
1.5215,-0.00274658,
1.522,0.000457764,
1.5225,0.00167847,
1.523,0.00686646,
1.5235,0.0230408,
1.524,0.0410461,
1.5245,0.0428772,
1.525,0.0358582,
1.5255,0.0302124,
1.526,0.0292969,
1.5265,0.030365,
1.527,0.0311279,
1.5275,0.0341797,
1.528,0.0434875,
1.5285,0.0575256,
1.529,0.0596619,
1.5295,0.0419617,
1.53,0.0222778,
1.5305,0.0212097,
1.531,0.0363159,
1.5315,0.0430298,
1.532,0.0212097,
1.5325,-0.0238037,
1.533,-0.0564575,
1.5335,-0.0556946,
1.534,-0.0401306,
1.5345,-0.0230408,
1.535,-0.0167847,
1.5355,-0.0242615,
1.536,-0.0309753,
1.5365,-0.0210571,
1.537,-0.0012207,
1.5375,0.01297,
1.538,0.0167847,
1.5385,0.0189209,
1.539,0.0123596,
1.5395,-0.00396729,
1.54,-0.0167847,
1.5405,-0.0204468,
1.541,-0.0143433,
1.5415,0.00244141,
1.542,0.0279236,
1.5425,0.0428772,
1.543,0.0392151,
1.5435,0.0331116,
1.544,0.0343323,
1.5445,0.0375366,
1.545,0.035553,
1.5455,0.015564,
1.546,-0.0216675,
1.5465,-0.0556946,
1.547,-0.0575256,
1.5475,-0.0279236,
1.548,0.00289917,
1.5485,0.0128174,
1.549,0.00488281,
1.5495,-0.00717163,
1.55,-0.0128174,
1.5505,-0.00457764,
1.551,0.0192261,
1.5515,0.0260925,
1.552,0.00686646,
1.5525,-0.0186157,
1.553,-0.0390625,
1.5535,-0.045929,
1.554,-0.0416565,
1.5545,-0.0346375,
1.555,-0.0267029,
1.5555,-0.0279236,
1.556,-0.0346375,
1.5565,-0.039978,
1.557,-0.0424194,
1.5575,-0.0328064,
1.558,-0.0050354,
1.5585,0.0132751,
1.559,-0.00762939,
1.5595,-0.0274658,
1.56,-0.0123596,
1.5605,0.019989,
1.561,0.03479,
1.5615,0.0183105,
1.562,-0.0205994,
1.5625,-0.0445557,
1.563,-0.0297546,
1.5635,0.0108337,
1.564,0.0553894,
1.5645,0.0830078,
1.565,0.092926,
1.5655,0.100098,
1.566,0.092926,
1.5665,0.0679016,
1.567,0.0428772,
1.5675,0.0254822,
1.568,0.00259399,
1.5685,-0.0285339,
1.569,-0.0468445,
1.5695,-0.0439453,
1.57,-0.0442505,
1.5705,-0.0718689,
1.571,-0.117035,
1.5715,-0.134583,
1.572,-0.114594,
1.5725,-0.0813293,
1.573,-0.0436401,
1.5735,-0.00732422,
1.574,0.0115967,
1.5745,0.0106812,
1.575,0.0135803,
1.5755,0.0138855,
1.576,0.00579834,
1.5765,0.00305176,
1.577,0.00213623,
1.5775,-0.00350952,
1.578,0.00106812,
1.5785,0.0112915,
1.579,0.0119019,
1.5795,0.00320435,
1.58,0.00244141,
1.5805,0.0106812,
1.581,0.0117493,
1.5815,-0.000762939,
1.582,-0.000457764,
1.5825,0.0285339,
1.583,0.0590515,
1.5835,0.078125,
1.584,0.0846863,
1.5845,0.0631714,
1.585,0.0234985,
1.5855,-0.00411987,
1.586,-0.0289917,
1.5865,-0.0540161,
1.587,-0.0523376,
1.5875,-0.0236511,
1.588,-0.00106812,
1.5885,0.00183105,
1.589,-0.0108337,
1.5895,-0.00274658,
1.59,0.0424194,
1.5905,0.0865173,
1.591,0.103149,
1.5915,0.0982666,
1.592,0.0843811,
1.5925,0.0621033,
1.593,0.0460815,
1.5935,0.0331116,
1.594,0.00198364,
1.5945,-0.0354004,
1.595,-0.075531,
1.5955,-0.113831,
1.596,-0.12558,
1.5965,-0.124054,
1.597,-0.123901,
1.5975,-0.0997925,
1.598,-0.0509644,
1.5985,-0.030365,
1.599,-0.050354,
1.5995,-0.0727844,
1.6,-0.083313,
1.6005,-0.0924683,
1.601,-0.0883484,
1.6015,-0.0563049,
1.602,-0.0105286,
1.6025,0.0138855,
1.603,0.0038147,
1.6035,-0.017395,
1.604,-0.0254822,
1.6045,0.00442505,
1.605,0.0546265,
1.6055,0.0842285,
1.606,0.0735474,
1.6065,0.0538635,
1.607,0.0514221,
1.6075,0.0328064,
1.608,-0.0422668,
1.6085,-0.11673,
1.609,-0.11795,
1.6095,-0.0669861,
1.61,-0.0143433,
1.6105,0.0297546,
1.611,0.0311279,
1.6115,-0.0308228,
1.612,-0.0875854,
1.6125,-0.0959778,
1.613,-0.087738,
1.6135,-0.085907,
1.614,-0.0848389,
1.6145,-0.0878906,
1.615,-0.0904846,
1.6155,-0.0776672,
1.616,-0.0527954,
1.6165,-0.0279236,
1.617,-0.00976563,
1.6175,-0.00259399,
1.618,0.00686646,
1.6185,0.0134277,
1.619,-0.00289917,
1.6195,-0.0218201,
1.62,-0.0190735,
1.6205,0.00350952,
1.621,0.0332642,
1.6215,0.0534058,
1.622,0.0610352,
1.6225,0.0602722,
1.623,0.0463867,
1.6235,0.0431824,
1.624,0.08255,
1.6245,0.134277,
1.625,0.15686,
1.6255,0.142517,
1.626,0.103607,
1.6265,0.0535583,
1.627,0.00793457,
1.6275,-0.0166321,
1.628,-0.0221252,
1.6285,-0.0256348,
1.629,-0.0242615,
1.6295,-0.0100708,
1.63,0.000762939,
1.6305,-0.00137329,
1.631,-0.00930786,
1.6315,-0.0218201,
1.632,-0.025177,
1.6325,-0.00732422,
1.633,0.0152588,
1.6335,0.0308228,
1.634,0.0392151,
1.6345,0.0366211,
1.635,0.0314331,
1.6355,0.0352478,
1.636,0.0338745,
1.6365,0.0180054,
1.637,-0.00640869,
1.6375,-0.0382996,
1.638,-0.0717163,
1.6385,-0.0901794,
1.639,-0.0920105,
1.6395,-0.101013,
1.64,-0.129089,
1.6405,-0.16922,
1.641,-0.190887,
1.6415,-0.166779,
1.642,-0.11673,
1.6425,-0.0663757,
1.643,-0.0291443,
1.6435,-0.0100708,
1.644,-0.014801,
1.6445,-0.0706482,
1.645,-0.2005,
1.6455,-0.32608,
1.646,-0.345764,
1.6465,-0.237885,
1.647,-0.100861,
1.6475,-0.0830078,
1.648,-0.175629,
1.6485,-0.21225,
1.649,-0.147095,
1.6495,-0.0726318,
1.65,-0.00717163,
1.6505,0.101318,
1.651,0.282898,
1.6515,0.520477,
1.652,0.698242,
1.6525,0.662994,
1.653,0.4776,
1.6535,0.326385,
1.654,0.281525,
1.6545,0.274963,
1.655,0.218506,
1.6555,0.109406,
1.656,0.0256348,
1.6565,0.0335693,
1.657,0.102539,
1.6575,0.133972,
1.658,0.078125,
1.6585,-0.0224304,
1.659,-0.0990295,
1.6595,-0.100555,
1.66,-0.0393677,
1.6605,0.0320435,
1.661,0.0875854,
1.6615,0.128937,
1.662,0.175476,
1.6625,0.22049,
1.663,0.213623,
1.6635,0.132904,
1.664,0.058136,
1.6645,0.0653076,
1.665,0.114594,
1.6655,0.127869,
1.666,0.0758362,
1.6665,-0.00137329,
1.667,-0.0588989,
1.6675,-0.101013,
1.668,-0.129395,
1.6685,-0.115967,
1.669,-0.0804138,
1.6695,-0.0888062,
1.67,-0.13382,
1.6705,-0.132599,
1.671,-0.039978,
1.6715,0.0854492,
1.672,0.14389,
1.6725,0.11322,
1.673,0.0634766,
1.6735,0.0570679,
1.674,0.0904846,
1.6745,0.108032,
1.675,0.0709534,
1.6755,0.0198364,
1.676,-0.00549316,
1.6765,-0.00564575,
1.677,-0.0149536,
1.6775,-0.0541687,
1.678,-0.0901794,
1.6785,-0.101929,
1.679,-0.108337,
1.6795,-0.116882,
1.68,-0.122528,
1.6805,-0.134125,
1.681,-0.150452,
1.6815,-0.160828,
1.682,-0.170746,
1.6825,-0.180817,
1.683,-0.148926,
1.6835,-0.0422668,
1.684,0.0871277,
1.6845,0.152435,
1.685,0.13382,
1.6855,0.0582886,
1.686,-0.0244141,
1.6865,-0.0849915,
1.687,-0.124664,
1.6875,-0.14801,
1.688,-0.149689,
1.6885,-0.1474,
1.689,-0.153351,
1.6895,-0.162048,
1.69,-0.157776,
1.6905,-0.13504,
1.691,-0.106049,
1.6915,-0.0976563,
1.692,-0.114441,
1.6925,-0.13382,
1.693,-0.12558,
1.6935,-0.0840759,
1.694,-0.0640869,
1.6945,-0.0971985,
1.695,-0.121765,
1.6955,-0.0926208,
1.696,-0.0474548,
1.6965,-0.0231934,
1.697,0.0160217,
1.6975,0.106506,
1.698,0.205078,
1.6985,0.215759,
1.699,0.130157,
1.6995,0.0396729,
1.7,0.000457764,
1.7005,-0.00198364,
1.701,-0.0143433,
1.7015,-0.0262451,
1.702,-0.017395,
1.7025,-0.018158,
1.703,-0.0375366,
1.7035,-0.0378418,
1.704,-0.0157166,
1.7045,0.0177002,
1.705,0.0384521,
1.7055,0.0273132,
1.706,0.00915527,
1.7065,0.014801,
1.707,0.0390625,
1.7075,0.0291443,
1.708,-0.0253296,
1.7085,-0.0715637,
1.709,-0.0819397,
1.7095,-0.0663757,
1.71,-0.0509644,
1.7105,-0.0598145,
1.711,-0.0852966,
1.7115,-0.117798,
1.712,-0.137939,
1.7125,-0.12619,
1.713,-0.0895691,
1.7135,-0.0337219,
1.714,0.0305176,
1.7145,0.0692749,
1.715,0.0770569,
1.7155,0.0616455,
1.716,0.072937,
1.7165,0.181122,
1.717,0.294037,
1.7175,0.260925,
1.718,0.138855,
1.7185,0.0660706,
1.719,0.038147,
1.7195,-0.00457764,
1.72,-0.0195313,
1.7205,0.00335693,
1.721,-0.000610352,
1.7215,-0.0733948,
1.722,-0.163116,
1.7225,-0.193024,
1.723,-0.163116,
1.7235,-0.116425,
1.724,-0.0907898,
1.7245,-0.0889587,
1.725,-0.0811768,
1.7255,-0.0540161,
1.726,-0.0297546,
1.7265,-0.0239563,
1.727,-0.0299072,
1.7275,-0.0378418,
1.728,-0.0386047,
1.7285,-0.0280762,
1.729,-0.0105286,
1.7295,0.0186157,
1.73,0.0566101,
1.7305,0.0791931,
1.731,0.0863647,
1.7315,0.0997925,
1.732,0.114594,
1.7325,0.0982666,
1.733,0.0636292,
1.7335,0.039978,
1.734,0.0111389,
1.7345,-0.0263977,
1.735,-0.0378418,
1.7355,-0.0273132,
1.736,-0.0312805,
1.7365,-0.0462341,
1.737,-0.0566101,
1.7375,-0.0506592,
1.738,-0.0318909,
1.7385,-0.0190735,
1.739,-0.0234985,
1.7395,-0.035553,
1.74,-0.0500488,
1.7405,-0.0732422,
1.741,-0.110779,
1.7415,-0.133362,
1.742,-0.0990295,
1.7425,-0.0328064,
1.743,-0.0141907,
1.7435,-0.0653076,
1.744,-0.108643,
1.7445,-0.0984192,
1.745,-0.0697327,
1.7455,-0.0280762,
1.746,0.0465393,
1.7465,0.0956726,
1.747,0.0791931,
1.7475,0.0590515,
1.748,0.0898743,
1.7485,0.16922,
1.749,0.225983,
1.7495,0.179138,
1.75,0.0576782,
1.7505,-0.022583,
1.751,-0.00823975,
1.7515,0.0990295,
1.752,0.250092,
1.7525,0.325012,
1.753,0.252838,
1.7535,0.130157,
1.754,0.0738525,
1.7545,0.0769043,
1.755,0.0878906,
1.7555,0.103149,
1.756,0.11673,
1.7565,0.0915527,
1.757,0.0132751,
1.7575,-0.0665283,
1.758,-0.122375,
1.7585,-0.183411,
1.759,-0.243378,
1.7595,-0.239105,
1.76,-0.170288,
1.7605,-0.13092,
1.761,-0.145264,
1.7615,-0.140686,
1.762,-0.0585938,
1.7625,0.124817,
1.763,0.310059,
1.7635,0.32135,
1.764,0.174866,
1.7645,0.0697327,
1.765,0.0944519,
1.7655,0.104523,
1.766,0.0164795,
1.7665,-0.0558472,
1.767,-0.0393677,
1.7675,0.00839233,
1.768,-0.0248718,
1.7685,-0.13382,
1.769,-0.263214,
1.7695,-0.381622,
1.77,-0.3862,
1.7705,-0.242004,
1.771,-0.0613403,
1.7715,0.0344849,
1.772,0.0630188,
1.7725,0.108795,
1.773,0.147858,
1.7735,0.121155,
1.774,0.0482178,
1.7745,0.0439453,
1.775,0.22522,
1.7755,0.46936,
1.776,0.521545,
1.7765,0.35141,
1.777,0.130157,
1.7775,-0.0218201,
1.778,-0.091095,
1.7785,-0.121765,
1.779,-0.138092,
1.7795,-0.0857544,
1.78,0.0593567,
1.7805,0.174408,
1.781,0.127716,
1.7815,0.00991821,
1.782,-0.0315857,
1.7825,0.00366211,
1.783,0.0151062,
1.7835,-0.0177002,
1.784,-0.0382996,
1.7845,-0.0338745,
1.785,-0.0460815,
1.7855,-0.0984192,
1.786,-0.170746,
1.7865,-0.235901,
1.787,-0.273285,
1.7875,-0.287323,
1.788,-0.280609,
1.7885,-0.250092,
1.789,-0.20752,
1.7895,-0.175018,
1.79,-0.158844,
1.7905,-0.128174,
1.791,-0.0315857,
1.7915,0.137939,
1.792,0.319214,
1.7925,0.450287,
1.793,0.444946,
1.7935,0.289307,
1.794,0.151367,
1.7945,0.121765,
1.795,0.119019,
1.7955,0.0671387,
1.796,-0.00961304,
1.7965,-0.0456238,
1.797,-0.0346375,
1.7975,-0.0137329,
1.798,0.00762939,
1.7985,0.037384,
1.799,0.0518799,
1.7995,0.0508118,
1.8,0.0488281,
1.8005,0.0282288,
1.801,-0.0259399,
1.8015,-0.0823975,
1.802,-0.103149,
1.8025,-0.0952148,
1.803,-0.0900269,
1.8035,-0.0976563,
1.804,-0.104065,
1.8045,-0.0946045,
1.805,-0.0639343,
1.8055,-0.0222778,
1.806,0.0230408,
1.8065,0.0552368,
1.807,0.0672913,
1.8075,0.0694275,
1.808,0.0636292,
1.8085,0.0500488,
1.809,0.0260925,
1.8095,-0.0146484,
1.81,-0.0445557,
1.8105,-0.0354004,
1.811,-0.0299072,
1.8115,-0.0639343,
1.812,-0.126648,
1.8125,-0.1828,
1.813,-0.211487,
1.8135,-0.211334,
1.814,-0.192261,
1.8145,-0.16037,
1.815,-0.116577,
1.8155,-0.0819397,
1.816,-0.0759888,
1.8165,-0.0872803,
1.817,-0.0823975,
1.8175,-0.0517273,
1.818,-0.00732422,
1.8185,0.0448608,
1.819,0.080719,
1.8195,0.0888062,
1.82,0.0770569,
1.8205,0.0563049,
1.821,0.0189209,
1.8215,-0.0178528,
1.822,-0.0326538,
1.8225,-0.0486755,
1.823,-0.0846863,
1.8235,-0.126953,
1.824,-0.143127,
1.8245,-0.121613,
1.825,-0.0836182,
1.8255,-0.0343323,
1.826,0.0608826,
1.8265,0.165863,
1.827,0.171967,
1.8275,0.0868225,
1.828,0.0234985,
1.8285,0.0234985,
1.829,0.0404358,
1.8295,0.0527954,
1.83,0.0569153,
1.8305,0.042572,
1.831,0.00976563,
1.8315,-0.0216675,
1.832,-0.0323486,
1.8325,-0.0248718,
1.833,-0.0189209,
1.8335,-0.00732422,
1.834,0.0268555,
1.8345,0.0785828,
1.835,0.100403,
1.8355,0.0724792,
1.836,0.0335693,
1.8365,0.0215149,
1.837,0.0384521,
1.8375,0.0598145,
1.838,0.0570679,
1.8385,0.0268555,
1.839,0.00183105,
1.8395,0.00610352,
1.84,0.00915527,
1.8405,-0.00915527,
1.841,-0.025177,
1.8415,-0.0372314,
1.842,-0.0559998,
1.8425,-0.0691223,
1.843,-0.0747681,
1.8435,-0.0814819,
1.844,-0.0675964,
1.8445,-0.0256348,
1.845,0.00793457,
1.8455,0.0189209,
1.846,0.0369263,
1.8465,0.0601196,
1.847,0.0498962,
1.8475,0.00457764,
1.848,-0.0479126,
1.8485,-0.0704956,
1.849,-0.0726318,
1.8495,-0.112,
1.85,-0.176392,
1.8505,-0.21637,
1.851,-0.221405,
1.8515,-0.215302,
1.852,-0.225372,
1.8525,-0.249329,
1.853,-0.269623,
1.8535,-0.239563,
1.854,-0.139923,
1.8545,-0.0221252,
1.855,0.0875854,
1.8555,0.150452,
1.856,0.0994873,
1.8565,0.0187683,
1.857,0.0515747,
1.8575,0.195618,
1.858,0.312805,
1.8585,0.343018,
1.859,0.379028,
1.8595,0.408936,
1.86,0.355225,
1.8605,0.262756,
1.861,0.171356,
1.8615,0.0563049,
1.862,-0.0216675,
1.8625,-0.0221252,
1.863,-0.0062561,
1.8635,-0.0154114,
1.864,-0.0473022,
1.8645,-0.0639343,
1.865,-0.0338745,
1.8655,0.0210571,
1.866,0.0561523,
1.8665,0.0842285,
1.867,0.0854492,
1.8675,0.00289917,
1.868,-0.0918579,
1.8685,-0.0933838,
1.869,-0.0234985,
1.8695,0.0445557,
1.87,0.0714111,
1.8705,0.0398254,
1.871,-0.0395203,
1.8715,-0.113678,
1.872,-0.12085,
1.8725,-0.06073,
1.873,0.0164795,
1.8735,0.0460815,
1.874,0.0186157,
1.8745,-0.00854492,
1.875,0.00717163,
1.8755,0.0492859,
1.876,0.0836182,
1.8765,0.0663757,
1.877,0.0138855,
1.8775,-0.0234985,
1.878,-0.045929,
1.8785,-0.057373,
1.879,-0.0514221,
1.8795,-0.0361633,
1.88,-0.0163269,
1.8805,0.0105286,
1.881,0.0241089,
1.8815,-0.000762939,
1.882,-0.0410461,
1.8825,-0.0476074,
1.883,-0.035553,
1.8835,-0.0415039,
1.884,-0.0779724,
1.8845,-0.117493,
1.885,-0.132751,
1.8855,-0.133514,
1.886,-0.113831,
1.8865,-0.039978,
1.887,0.0456238,
1.8875,0.0387573,
1.888,-0.0512695,
1.8885,-0.123749,
1.889,-0.105591,
1.8895,-0.0196838,
1.89,0.0404358,
1.8905,0.0271606,
1.891,-0.0218201,
1.8915,-0.0479126,
1.892,-0.0576782,
1.8925,-0.0701904,
1.893,-0.0408936,
1.8935,0.0935364,
1.894,0.235291,
1.8945,0.250549,
1.895,0.18158,
1.8955,0.103607,
1.896,0.0297546,
1.8965,-0.019989,
1.897,-0.0248718,
1.8975,-0.0128174,
1.898,-0.0169373,
1.8985,-0.0299072,
1.899,-0.0280762,
1.8995,0.00518799,
1.9,0.072937,
1.9005,0.151215,
1.901,0.167084,
1.9015,0.105743,
1.902,0.0534058,
1.9025,0.0476074,
1.903,0.0227356,
1.9035,-0.0590515,
1.904,-0.12085,
1.9045,-0.0975037,
1.905,-0.0163269,
1.9055,0.0312805,
1.906,-0.010376,
1.9065,-0.0837708,
1.907,-0.0927734,
1.9075,-0.0497437,
1.908,-0.0160217,
1.9085,-0.00167847,
1.909,0.000915527,
1.9095,-0.0157166,
1.91,-0.038147,
1.9105,-0.0613403,
1.911,-0.106812,
1.9115,-0.18219,
1.912,-0.253906,
1.9125,-0.268097,
1.913,-0.182037,
1.9135,-0.0390625,
1.914,0.0956726,
1.9145,0.199738,
1.915,0.242004,
1.9155,0.211487,
1.916,0.138092,
1.9165,0.0863647,
1.917,0.0883484,
1.9175,0.0958252,
1.918,0.0387573,
1.9185,-0.058136,
1.919,-0.136261,
1.9195,-0.163879,
1.92,-0.135956,
1.9205,-0.0616455,
1.921,0.039978,
1.9215,0.145416,
1.922,0.175934,
1.9225,0.117493,
1.923,0.0657654,
1.9235,0.0665283,
1.924,0.10498,
1.9245,0.139771,
1.925,0.116577,
1.9255,0.0598145,
1.926,0.0213623,
1.9265,-0.00549316,
1.927,-0.0346375,
1.9275,-0.0575256,
1.928,-0.0662231,
1.9285,-0.0775146,
1.929,-0.105438,
1.9295,-0.120392,
1.93,-0.0930786,
1.9305,-0.0473022,
1.931,-0.0114441,
1.9315,-0.00930786,
1.932,-0.0354004,
1.9325,-0.0253296,
1.933,0.0408936,
1.9335,0.0543213,
1.934,-0.0315857,
1.9345,-0.121613,
1.935,-0.16098,
1.9355,-0.166779,
1.936,-0.142365,
1.9365,-0.0798035,
1.937,-0.0109863,
1.9375,0.0160217,
1.938,0.0352478,
1.9385,0.130463,
1.939,0.252228,
1.9395,0.236359,
1.94,0.10849,
1.9405,0.0245667,
1.941,0.0137329,
1.9415,0.00152588,
1.942,-0.0341797,
1.9425,-0.0650024,
1.943,-0.0860596,
1.9435,-0.0894165,
1.944,-0.0506592,
1.9445,-0.00289917,
1.945,0.0296021,
1.9455,0.0527954,
1.946,0.0445557,
1.9465,0.0189209,
1.947,0.0215149,
1.9475,0.0415039,
1.948,0.0473022,
1.9485,0.0311279,
1.949,0.00762939,
1.9495,-0.000610352,
1.95,0.00595093,
1.9505,-0.00213623,
1.951,-0.0117493,
1.9515,-0.0311279,
1.952,-0.0701904,
1.9525,-0.0675964,
1.953,0.012207,
1.9535,0.0660706,
1.954,0.0346375,
1.9545,-0.017395,
1.955,-0.0747681,
1.9555,-0.157928,
1.956,-0.219727,
1.9565,-0.235443,
1.957,-0.215302,
1.9575,-0.155029,
1.958,-0.0650024,
1.9585,-0.000457764,
1.959,-0.0161743,
1.9595,-0.0494385,
1.96,0.00640869,
1.9605,0.153809,
1.961,0.252686,
1.9615,0.21637,
1.962,0.160828,
1.9625,0.173492,
1.963,0.218506,
1.9635,0.231323,
1.964,0.226135,
1.9645,0.232697,
1.965,0.215302,
1.9655,0.135803,
1.966,0.0209045,
1.9665,-0.108795,
1.967,-0.201263,
1.9675,-0.201416,
1.968,-0.157623,
1.9685,-0.123596,
1.969,-0.111237,
1.9695,-0.102997,
1.97,-0.0820923,
1.9705,-0.0543213,
1.971,-0.0257874,
1.9715,-0.0152588,
1.972,-0.0337219,
1.9725,-0.072937,
1.973,-0.106049,
1.9735,-0.115662,
1.974,-0.118866,
1.9745,-0.111847,
1.975,-0.0868225,
1.9755,-0.0700378,
1.976,-0.070343,
1.9765,-0.0776672,
1.977,-0.0866699,
1.9775,-0.0692749,
1.978,-0.00167847,
1.9785,0.0543213,
1.979,0.0370789,
1.9795,-0.0146484,
1.98,-0.0346375,
1.9805,-0.019989,
1.981,-0.00610352,
1.9815,0.00732422,
1.982,0.0439453,
1.9825,0.085907,
1.983,0.092926,
1.9835,0.0613403,
1.984,0.0263977,
1.9845,0.020752,
1.985,0.0349426,
1.9855,0.0611877,
1.986,0.0930786,
1.9865,0.110931,
1.987,0.103302,
1.9875,0.0793457,
1.988,0.0556946,
1.9885,0.0469971,
1.989,0.0370789,
1.9895,0.00671387,
1.99,-0.0332642,
1.9905,-0.0732422,
1.991,-0.108948,
1.9915,-0.123444,
1.992,-0.12085,
1.9925,-0.112915,
1.993,-0.0862122,
1.9935,-0.0415039,
1.994,-0.00152588,
1.9945,0.015564,
1.995,0,
1.9955,-0.045929,
1.996,-0.0875854,
1.9965,-0.105133,
1.997,-0.108185,
1.9975,-0.0968933,
1.998,-0.0674438,
1.9985,-0.0152588,
1.999,0.0334167,
1.9995,0.0299072,
2,0.00747681,
2.0005,0.0273132,
2.001,0.0521851,
2.0015,0.0201416,
2.002,-0.0238037,
2.0025,-0.00793457,
2.003,0.0289917,
2.0035,0.0164795,
2.004,-0.0134277,
2.0045,0.00854492,
2.005,0.0759888,
2.0055,0.127716,
2.006,0.1297,
2.0065,0.118408,
2.007,0.126343,
2.0075,0.152283,
2.008,0.185242,
2.0085,0.171814,
2.009,0.0813293,
2.0095,-0.00686646,
2.01,-0.0361633,
2.0105,-0.0248718,
2.011,0.000762939,
2.0115,0.0132751,
2.012,0.000610352,
2.0125,-0.0167847,
2.013,-0.0192261,
2.0135,-0.00946045,
2.014,-0.0138855,
2.0145,-0.0448608,
2.015,-0.0656128,
2.0155,-0.0683594,
2.016,-0.0975037,
2.0165,-0.146027,
2.017,-0.17334,
2.0175,-0.151062,
2.018,-0.0958252,
2.0185,-0.0431824,
2.019,-0.0177002,
2.0195,0.0274658,
2.02,0.104218,
2.0205,0.116577,
2.021,0.098114,
2.0215,0.171051,
2.022,0.266266,
2.0225,0.268097,
2.023,0.197906,
2.0235,0.0979614,
2.024,0.00991821,
2.0245,-0.0318909,
2.025,-0.0390625,
2.0255,-0.057373,
2.026,-0.0891113,
2.0265,-0.127869,
2.027,-0.142517,
2.0275,-0.115204,
2.028,-0.0756836,
2.0285,-0.0363159,
2.029,0.0134277,
2.0295,0.0488281,
2.03,0.0161743,
2.0305,-0.124817,
2.031,-0.301208,
2.0315,-0.382385,
2.032,-0.358734,
2.0325,-0.322723,
2.033,-0.301208,
2.0335,-0.252991,
2.034,-0.169373,
2.0345,-0.0585938,
2.035,0.154572,
2.0355,0.522461,
2.036,0.815277,
2.0365,0.749664,
2.037,0.439911,
2.0375,0.193176,
2.038,0.0878906,
2.0385,0.0393677,
2.039,0.00854492,
2.0395,-0.0154114,
2.04,-0.0552368,
2.0405,-0.0938416,
2.041,-0.103149,
2.0415,-0.0827026,
2.042,-0.059967,
2.0425,-0.0646973,
2.043,-0.0950623,
2.0435,-0.133057,
2.044,-0.153046,
2.0445,-0.140991,
2.045,-0.113525,
2.0455,-0.103607,
2.046,-0.110626,
2.0465,-0.115204,
2.047,-0.0968933,
2.0475,-0.0579834,
2.048,-0.0175476,
2.0485,0.0202942,
2.049,0.0613403,
2.0495,0.0965881,
2.05,0.0897217,
2.0505,0.0550842,
2.051,0.0268555,
2.0515,0.00320435,
2.052,-0.0360107,
2.0525,-0.0895691,
2.053,-0.142365,
2.0535,-0.175018,
2.054,-0.172729,
2.0545,-0.144501,
2.055,-0.113983,
2.0555,-0.098877,
2.056,-0.0941467,
2.0565,-0.0444031,
2.057,0.0773621,
2.0575,0.239563,
2.058,0.380402,
2.0585,0.392609,
2.059,0.251923,
2.0595,0.0985718,
2.06,0.0196838,
2.0605,-0.0183105,
2.061,-0.0222778,
2.0615,0.000152588,
2.062,0.00808716,
2.0625,0.00534058,
2.063,0.015564,
2.0635,0.0108337,
2.064,-0.0242615,
2.0645,-0.0138855,
2.065,0.0611877,
2.0655,0.116119,
2.066,0.135345,
2.0665,0.137482,
2.067,0.0997925,
2.0675,0.0280762,
2.068,-0.0489807,
2.0685,-0.107117,
2.069,-0.10849,
2.0695,-0.0546265,
2.07,-0.00854492,
2.0705,-0.0115967,
2.071,-0.0372314,
2.0715,-0.0544739,
2.072,-0.0689697,
2.0725,-0.0866699,
2.073,-0.0837708,
2.0735,-0.0572205,
2.074,-0.0311279,
2.0745,-0.0144958,
2.075,0.00442505,
2.0755,0.0372314,
2.076,0.0686646,
2.0765,0.0794983,
2.077,0.065155,
2.0775,0.0318909,
2.078,0.00305176,
2.0785,-0.00610352,
2.079,-0.00366211,
2.0795,-0.00488281,
2.08,-0.00808716,
2.0805,-0.00823975,
2.081,-0.0149536,
2.0815,-0.0408936,
2.082,-0.09552,
2.0825,-0.154266,
2.083,-0.156097,
2.0835,-0.0942993,
2.084,-0.0326538,
2.0845,-0.0233459,
2.085,-0.0578308,
2.0855,-0.080719,
2.086,-0.0492859,
2.0865,0.0151062,
2.087,0.0531006,
2.0875,0.0398254,
2.088,0.0106812,
2.0885,-0.00534058,
2.089,-0.0132751,
2.0895,-0.0186157,
2.09,-0.0187683,
2.0905,-0.0151062,
2.091,-0.00793457,
2.0915,0.00808716,
2.092,0.0175476,
2.0925,0.0160217,
2.093,0.00396729,
2.0935,-0.0366211,
2.094,-0.088501,
2.0945,-0.136261,
2.095,-0.185394,
2.0955,-0.238342,
2.096,-0.274658,
2.0965,-0.279846,
2.097,-0.26886,
2.0975,-0.240326,
2.098,-0.156555,
2.0985,0.0204468,
2.099,0.218506,
2.0995,0.269318,
2.1,0.209045,
2.1005,0.225983,
2.101,0.312805,
2.1015,0.364227,
2.102,0.363464,
2.1025,0.294495,
2.103,0.158691,
2.1035,0.0177002,
2.104,-0.0622559,
2.1045,-0.10437,
2.105,-0.162659,
2.1055,-0.231476,
2.106,-0.267029,
2.1065,-0.275421,
2.107,-0.300903,
2.1075,-0.371704,
2.108,-0.405273,
2.1085,-0.238495,
2.109,0.0718689,
2.1095,0.215149,
2.11,0.218506,
2.1105,0.344696,
2.111,0.523987,
2.1115,0.541687,
2.112,0.411835,
2.1125,0.297852,
2.113,0.258789,
2.1135,0.201263,
2.114,0.0891113,
2.1145,0.00854492,
2.115,-0.00228882,
2.1155,0.0140381,
2.116,0.015564,
2.1165,0.00427246,
2.117,0.000762939,
2.1175,0.0062561,
2.118,-0.00305176,
2.1185,-0.0317383,
2.119,-0.059967,
2.1195,-0.0860596,
2.12,-0.105591,
2.1205,-0.0952148,
2.121,-0.0552368,
2.1215,-0.0291443,
2.122,-0.0408936,
2.1225,-0.0596619,
2.123,-0.065918,
2.1235,-0.0730896,
2.124,-0.0891113,
2.1245,-0.0888062,
2.125,-0.0666809,
2.1255,-0.063324,
2.126,-0.107727,
2.1265,-0.154419,
2.127,-0.171356,
2.1275,-0.170288,
2.128,-0.161743,
2.1285,-0.144501,
2.129,-0.129089,
2.1295,-0.137329,
2.13,-0.158386,
2.1305,-0.109863,
2.131,0.0752258,
2.1315,0.261993,
2.132,0.276794,
2.1325,0.189667,
2.133,0.111694,
2.1335,0.0508118,
2.134,0.0271606,
2.1345,0.0672913,
2.135,0.143433,
2.1355,0.215454,
2.136,0.249634,
2.1365,0.205688,
2.137,0.115204,
2.1375,0.0404358,
2.138,-0.00549316,
2.1385,-0.0291443,
2.139,-0.0442505,
2.1395,-0.0527954,
2.14,-0.0419617,
2.1405,-0.0364685,
2.141,-0.0627136,
2.1415,-0.0942993,
2.142,-0.0846863,
2.1425,-0.0492859,
2.143,-0.0466919,
2.1435,-0.0802612,
2.144,-0.102386,
2.1445,-0.0770569,
2.145,-0.0120544,
2.1455,0.0582886,
2.146,0.0889587,
2.1465,0.0630188,
2.147,0.0271606,
2.1475,0.0216675,
2.148,0.0160217,
2.1485,-0.0062561,
2.149,-0.0337219,
2.1495,-0.0596619,
2.15,-0.0862122,
2.1505,-0.122528,
2.151,-0.157471,
2.1515,-0.150299,
2.152,-0.0985718,
2.1525,-0.0424194,
2.153,-0.0144958,
2.1535,-0.00213623,
2.154,0.00900269,
2.1545,0.0184631,
2.155,0.0245667,
2.1555,0.0274658,
2.156,0.0230408,
2.1565,0.00915527,
2.157,0.00366211,
2.1575,0.0175476,
2.158,0.037384,
2.1585,0.0424194,
2.159,0.0491333,
2.1595,0.0721741,
2.16,0.0920105,
2.1605,0.0939941,
2.161,0.0782776,
2.1615,0.0395203,
2.162,-0.0228882,
2.1625,-0.0946045,
2.163,-0.146179,
2.1635,-0.153656,
2.164,-0.130157,
2.1645,-0.122375,
2.165,-0.135651,
2.1655,-0.128479,
2.166,-0.0996399,
2.1665,-0.0810242,
2.167,-0.0976563,
2.1675,-0.155029,
2.168,-0.212555,
2.1685,-0.2211,
2.169,-0.174103,
2.1695,-0.0463867,
2.17,0.171356,
2.1705,0.378418,
2.171,0.46814,
2.1715,0.470734,
2.172,0.455933,
2.1725,0.421906,
2.173,0.3125,
2.1735,0.130768,
2.174,-0.0502014,
2.1745,-0.184631,
2.175,-0.230255,
2.1755,-0.191956,
2.176,-0.144501,
2.1765,-0.130768,
2.177,-0.119019,
2.1775,-0.0979614,
2.178,-0.0816345,
2.1785,-0.059967,
2.179,-0.0201416,
2.1795,0.0172424,
2.18,0.0537109,
2.1805,0.107269,
2.181,0.149384,
2.1815,0.145416,
2.182,0.103302,
2.1825,0.0466919,
2.183,-0.00366211,
2.1835,-0.0706482,
2.184,-0.184631,
2.1845,-0.319366,
2.185,-0.383911,
2.1855,-0.340271,
2.186,-0.282288,
2.1865,-0.273132,
2.187,-0.259857,
2.1875,-0.191193,
2.188,-0.102539,
2.1885,-0.00228882,
2.189,0.180359,
2.1895,0.410614,
2.19,0.485535,
2.1905,0.367584,
2.191,0.244446,
2.1915,0.169373,
2.192,0.0891113,
2.1925,0.00991821,
2.193,-0.0532532,
2.1935,-0.0891113,
2.194,-0.0788879,
2.1945,-0.0280762,
2.195,0.0248718,
2.1955,0.0332642,
2.196,0.00289917,
2.1965,0.0183105,
2.197,0.0738525,
2.1975,0.0695801,
2.198,0.0163269,
2.1985,0.00671387,
2.199,0.0527954,
2.1995,0.0695801,
2.2,0.0292969,
2.2005,0.0112915,
2.201,0.045929,
2.2015,0.0558472,
2.202,-0.0346375,
2.2025,-0.175323,
2.203,-0.269775,
2.2035,-0.297089,
2.204,-0.304108,
2.2045,-0.315552,
2.205,-0.292511,
2.2055,-0.196533,
2.206,-0.012207,
2.2065,0.194092,
2.207,0.279541,
2.2075,0.284271,
2.208,0.37674,
2.2085,0.498962,
2.209,0.501709,
2.2095,0.36026,
2.21,0.162659,
2.2105,0.0205994,
2.211,-0.0352478,
2.2115,-0.0408936,
2.212,-0.0328064,
2.2125,-0.0215149,
2.213,-0.0248718,
2.2135,-0.0328064,
2.214,-0.0216675,
2.2145,-0.0189209,
2.215,-0.0286865,
2.2155,-0.000762939,
2.216,0.0515747,
2.2165,0.0480652,
2.217,-0.0149536,
2.2175,-0.0547791,
2.218,-0.0294495,
2.2185,0.00366211,
2.219,-0.0131226,
2.2195,-0.0692749,
2.22,-0.187531,
2.2205,-0.335083,
2.221,-0.392456,
2.2215,-0.347595,
2.222,-0.277405,
2.2225,-0.207672,
2.223,-0.124969,
2.2235,-0.0323486,
2.224,0.03479,
2.2245,0.0724792,
2.225,0.187073,
2.2255,0.379333,
2.226,0.446777,
2.2265,0.297852,
2.227,0.110321,
2.2275,0.0256348,
2.228,-0.00595093,
2.2285,-0.0592041,
2.229,-0.110168,
2.2295,-0.113525,
2.23,-0.0978088,
2.2305,-0.0927734,
2.231,-0.0720215,
2.2315,-0.0265503,
2.232,0.00640869,
2.2325,-0.00900269,
2.233,-0.0361633,
2.2335,-0.0379944,
2.234,-0.0387573,
2.2345,-0.0634766,
2.235,-0.0965881,
2.2355,-0.115509,
2.236,-0.100403,
2.2365,-0.0663757,
2.237,-0.0601196,
2.2375,-0.0578308,
2.238,-0.015564,
2.2385,0.0259399,
2.239,0.0340271,
2.2395,0.0482178,
2.24,0.0997925,
2.2405,0.174561,
2.241,0.211029,
2.2415,0.147858,
2.242,0.0213623,
2.2425,-0.0660706,
2.243,-0.0947571,
2.2435,-0.101929,
2.244,-0.0746155,
2.2445,0.0144958,
2.245,0.107574,
2.2455,0.105438,
2.246,0.0384521,
2.2465,-0.00244141,
2.247,0.00106812,
2.2475,0.0152588,
2.248,0.0164795,
2.2485,0.00183105,
2.249,-0.0108337,
2.2495,-0.0167847,
2.25,-0.0135803,
2.2505,0.0202942,
2.251,0.0723267,
2.2515,0.0939941,
2.252,0.0759888,
2.2525,0.0460815,
2.253,0.0282288,
2.2535,0.0193787,
2.254,0.00717163,
2.2545,-0.0123596,
2.255,-0.0311279,
2.2555,-0.0436401,
2.256,-0.0463867,
2.2565,-0.0352478,
2.257,0.0038147,
2.2575,0.0498962,
2.258,0.0582886,
2.2585,-0.000915527,
2.259,-0.096283,
2.2595,-0.15213,
2.26,-0.151672,
2.2605,-0.155334,
2.261,-0.192719,
2.2615,-0.233765,
2.262,-0.256348,
2.2625,-0.257263,
2.263,-0.211945,
2.2635,-0.0921631,
2.264,0.00823975,
2.2645,-0.0177002,
2.265,-0.0616455,
2.2655,0.030365,
2.266,0.174408,
2.2665,0.211487,
2.267,0.205383,
2.2675,0.231781,
2.268,0.211792,
2.2685,0.127869,
2.269,0.067749,
2.2695,0.0650024,
2.27,0.0874329,
2.2705,0.12207,
2.271,0.15152,
2.2715,0.135803,
2.272,0.0779724,
2.2725,0.0233459,
2.273,-0.00305176,
2.2735,-0.0325012,
2.274,-0.0814819,
2.2745,-0.109711,
2.275,-0.102539,
2.2755,-0.0918579,
2.276,-0.108643,
2.2765,-0.163422,
2.277,-0.209351,
2.2775,-0.198822,
2.278,-0.174408,
2.2785,-0.176392,
2.279,-0.148163,
2.2795,-0.0326538,
2.28,0.12558,
2.2805,0.186157,
2.281,0.0901794,
2.2815,-0.050354,
2.282,-0.147095,
2.2825,-0.210571,
2.283,-0.256653,
2.2835,-0.282593,
2.284,-0.266724,
2.2845,-0.22522,
2.285,-0.192108,
2.2855,-0.0865173,
2.286,0.210266,
2.2865,0.523376,
2.287,0.550995,
2.2875,0.367432,
2.288,0.221558,
2.2885,0.158997,
2.289,0.116577,
2.2895,0.131989,
2.29,0.209961,
2.2905,0.222931,
2.291,0.122681,
2.2915,0.0540161,
2.292,0.085144,
2.2925,0.118561,
2.293,0.098114,
2.2935,0.0672913,
2.294,0.0616455,
2.2945,0.0526428,
2.295,-0.0062561,
2.2955,-0.102692,
2.296,-0.230408,
2.2965,-0.358734,
2.297,-0.439148,
2.2975,-0.466156,
2.298,-0.438385,
2.2985,-0.365601,
2.299,-0.328979,
2.2995,-0.303345,
2.3,-0.166016,
2.3005,0.0772095,
2.301,0.374756,
2.3015,0.652313,
2.302,0.744019,
2.3025,0.569458,
2.303,0.30014,
2.3035,0.158234,
2.304,0.154877,
2.3045,0.153351,
2.305,0.0692749,
2.3055,-0.00717163,
2.306,0.0183105,
2.3065,0.0837708,
2.307,0.0820923,
2.3075,0.000305176,
2.308,-0.123596,
2.3085,-0.236664,
2.309,-0.272675,
2.3095,-0.218964,
2.31,-0.149994,
2.3105,-0.12558,
2.311,-0.126038,
2.3115,-0.128021,
2.312,-0.145111,
2.3125,-0.122833,
2.313,0.022583,
2.3135,0.212402,
2.314,0.265961,
2.3145,0.162811,
2.315,0.0654602,
2.3155,0.0662231,
2.316,0.050354,
2.3165,-0.0790405,
2.317,-0.219727,
2.3175,-0.243988,
2.318,-0.126648,
2.3185,0.0234985,
2.319,0.0488281,
2.3195,-0.0135803,
2.32,-0.0245667,
2.3205,0.0270081,
2.321,0.0756836,
2.3215,0.120087,
2.322,0.185852,
2.3225,0.196838,
2.323,0.106812,
2.3235,-0.000762939,
2.324,-0.0346375,
2.3245,-0.00900269,
2.325,0.0131226,
2.3255,-0.00854492,
2.326,-0.0761414,
2.3265,-0.139923,
2.327,-0.140839,
2.3275,-0.0939941,
2.328,-0.0567627,
2.3285,-0.0315857,
2.329,0.00335693,
2.3295,0.0422668,
2.33,0.0679016,
2.3305,0.0608826,
2.331,0.0274658,
2.3315,-0.0170898,
2.332,-0.0869751,
2.3325,-0.156555,
2.333,-0.156097,
2.3335,-0.101013,
2.334,-0.0617981,
2.3345,-0.037384,
2.335,-0.00686646,
2.3355,-0.000762939,
2.336,-0.0204468,
2.3365,-0.0473022,
2.337,-0.0717163,
2.3375,-0.075531,
2.338,-0.0588989,
2.3385,-0.0585938,
2.339,-0.102539,
2.3395,-0.179291,
2.34,-0.23819,
2.3405,-0.244751,
2.341,-0.224915,
2.3415,-0.206604,
2.342,-0.181122,
2.3425,-0.144653,
2.343,-0.0593567,
2.3435,0.147858,
2.344,0.39978,
2.3445,0.511475,
2.345,0.448456,
2.3455,0.298004,
2.346,0.14267,
2.3465,0.0366211,
2.347,0.00656128,
2.3475,0.0364685,
2.348,0.0508118,
2.3485,-0.0144958,
2.349,-0.133057,
2.3495,-0.20752,
2.35,-0.219879,
2.3505,-0.235443,
2.351,-0.300751,
2.3515,-0.40451,
2.352,-0.456696,
2.3525,-0.402527,
2.353,-0.274963,
2.3535,-0.0779724,
2.354,0.175934,
2.3545,0.372162,
2.355,0.421448,
2.3555,0.368042,
2.356,0.320129,
2.3565,0.32074,
2.357,0.268097,
2.3575,0.133209,
2.358,0.0254822,
2.3585,-0.00457764,
2.359,-0.0265503,
2.3595,-0.0906372,
2.36,-0.168152,
2.3605,-0.228119,
2.361,-0.235596,
2.3615,-0.180359,
2.362,-0.108032,
2.3625,-0.0498962,
2.363,0.00274658,
2.3635,0.032196,
2.364,0.0509644,
2.3645,0.167847,
2.365,0.384064,
2.3655,0.529175,
2.366,0.453033,
2.3665,0.228882,
2.367,0.0680542,
2.3675,0.10498,
2.368,0.224609,
2.3685,0.241852,
2.369,0.183105,
2.3695,0.135803,
2.37,0.08255,
2.3705,-0.00534058,
2.371,-0.100555,
2.3715,-0.164642,
2.372,-0.162964,
2.3725,-0.121765,
2.373,-0.101013,
2.3735,-0.130615,
2.374,-0.178986,
2.3745,-0.187531,
2.375,-0.098877,
2.3755,0.00656128,
2.376,-0.00991821,
2.3765,-0.0915527,
2.377,-0.100403,
2.3775,-0.0784302,
2.378,-0.113068,
2.3785,-0.092926,
2.379,0.0741577,
2.3795,0.176392,
2.38,0.0602722,
2.3805,-0.0932312,
2.381,-0.0712585,
2.3815,0.0592041,
2.382,0.0930786,
2.3825,0.025177,
2.383,0.0233459,
2.3835,0.0715637,
2.384,0.0708008,
2.3845,0.0570679,
2.385,0.0723267,
2.3855,0.0566101,
2.386,-0.0138855,
2.3865,-0.101013,
2.387,-0.174561,
2.3875,-0.223541,
2.388,-0.252228,
2.3885,-0.247345,
2.389,-0.199585,
2.3895,-0.13504,
2.39,-0.0421143,
2.3905,0.071106,
2.391,0.144806,
2.3915,0.16861,
2.392,0.188446,
2.3925,0.223694,
2.393,0.254669,
2.3935,0.232849,
2.394,0.127716,
2.3945,-0.0531006,
2.395,-0.250244,
2.3955,-0.361938,
2.396,-0.369568,
2.3965,-0.312347,
2.397,-0.242157,
2.3975,-0.204163,
2.398,-0.198975,
2.3985,-0.187073,
2.399,-0.0714111,
2.3995,0.119019,
2.4,0.206909,
2.4005,0.10849,
2.401,-0.0900269,
2.4015,-0.277405,
2.402,-0.389252,
2.4025,-0.394745,
2.403,-0.209961,
2.4035,0.0593567,
2.404,0.108795,
2.4045,-0.0498962,
2.405,-0.213165,
2.4055,-0.223694,
2.406,0.00976563,
2.4065,0.289154,
2.407,0.372772,
2.4075,0.323181,
2.408,0.233917,
2.4085,0.0871277,
2.409,0.00671387,
2.4095,0.112915,
2.41,0.268707,
2.4105,0.346985,
2.411,0.428619,
2.4115,0.515137,
2.412,0.556641,
2.4125,0.530396,
2.413,0.382233,
2.4135,0.140228,
2.414,-0.0430298,
2.4145,-0.0878906,
2.415,-0.0730896,
2.4155,-0.06073,
2.416,-0.0228882,
2.4165,0.0300598,
2.417,0.0553894,
2.4175,0.0610352,
2.418,0.0479126,
2.4185,-0.020752,
2.419,-0.132446,
2.4195,-0.197296,
2.42,-0.211487,
2.4205,-0.234833,
2.421,-0.248718,
2.4215,-0.222778,
2.422,-0.18158,
2.4225,-0.0956726,
2.423,0.0875854,
2.4235,0.249329,
2.424,0.275116,
2.4245,0.210876,
2.425,0.143127,
2.4255,0.0892639,
2.426,0.00732422,
2.4265,-0.111389,
2.427,-0.228729,
2.4275,-0.34317,
2.428,-0.495911,
2.4285,-0.727234,
2.429,-1.00937,
2.4295,-1.20041,
2.43,-1.27441,
2.4305,-1.22604,
2.431,-0.930176,
2.4315,-0.444641,
2.432,0.0149536,
2.4325,0.360718,
2.433,0.669708,
2.4335,1.13541,
2.434,1.54037,
2.4345,1.39435,
2.435,0.883026,
2.4355,0.492554,
2.436,0.249939,
2.4365,0.0473022,
2.437,-0.0340271,
2.4375,-0.00747681,
2.438,-0.00106812,
2.4385,-0.0384521,
2.439,-0.0233459,
2.4395,0.100555,
2.44,0.308685,
2.4405,0.502472,
2.441,0.453644,
2.4415,0.14679,
2.442,-0.141296,
2.4425,-0.243988,
2.443,-0.243225,
2.4435,-0.231476,
2.444,-0.196228,
2.4445,-0.101318,
2.445,0.0415039,
2.4455,0.198364,
2.446,0.378571,
2.4465,0.504456,
2.447,0.422668,
2.4475,0.198517,
2.448,-0.0161743,
2.4485,-0.177917,
2.449,-0.271912,
2.4495,-0.269623,
2.45,-0.162964,
2.4505,-0.0134277,
2.451,0.083313,
2.4515,0.0991821,
2.452,0.115509,
2.4525,0.116272,
2.453,-0.0138855,
2.4535,-0.264587,
2.454,-0.498962,
2.4545,-0.627136,
2.455,-0.652161,
2.4555,-0.610352,
2.456,-0.546875,
2.4565,-0.491028,
2.457,-0.325775,
2.4575,0.142975,
2.458,0.73822,
2.4585,0.962219,
2.459,0.754395,
2.4595,0.468903,
2.46,0.27771,
2.4605,0.205994,
2.461,0.186768,
2.4615,0.0982666,
2.462,-0.0257874,
2.4625,-0.100098,
2.463,-0.151062,
2.4635,-0.196991,
2.464,-0.15213,
2.4645,-0.0491333,
2.465,-0.00335693,
2.4655,-0.0144958,
2.466,-0.0468445,
2.4665,-0.0762939,
2.467,-0.0836182,
2.4675,-0.115509,
2.468,-0.203857,
2.4685,-0.301514,
2.469,-0.327759,
2.4695,-0.256042,
2.47,-0.143433,
2.4705,-0.0552368,
2.471,-0.0265503,
2.4715,-0.0764465,
2.472,-0.135345,
2.4725,-0.0892639,
2.473,0.0549316,
2.4735,0.142822,
2.474,0.0650024,
2.4745,-0.106506,
2.475,-0.261841,
2.4755,-0.338593,
2.476,-0.374908,
2.4765,-0.379333,
2.477,-0.313568,
2.4775,-0.172272,
2.478,0.0665283,
2.4785,0.43396,
2.479,0.673065,
2.4795,0.498047,
2.48,0.147552,
2.4805,-0.0384521,
2.481,-0.176849,
2.4815,-0.402679,
2.482,-0.529327,
2.4825,-0.504303,
2.483,-0.390167,
2.4835,-0.116119,
2.484,0.128784,
2.4845,0.0624084,
2.485,-0.127716,
2.4855,-0.0231934,
2.486,0.431976,
2.4865,0.783081,
2.487,0.775604,
2.4875,0.637054,
2.488,0.474396,
2.4885,0.233002,
2.489,-0.0131226,
2.4895,-0.149689,
2.49,-0.137177,
2.4905,-0.0396729,
2.491,0.032959,
2.4915,0.0140381,
2.492,0.00518799,
2.4925,0.0990295,
2.493,0.155334,
2.4935,0.159912,
2.494,0.233459,
2.4945,0.289001,
2.495,0.150146,
2.4955,-0.113678,
2.496,-0.299683,
2.4965,-0.381927,
2.497,-0.415497,
2.4975,-0.348206,
2.498,-0.19104,
2.4985,-0.0456238,
2.499,0.0964355,
2.4995,0.256805,
2.5,0.327148,
2.5005,0.245361,
2.501,0.122986,
2.5015,0.0312805,
2.502,-0.0912476,
2.5025,-0.225067,
2.503,-0.245819,
2.5035,-0.0959778,
2.504,0.0984192,
2.5045,0.209351,
2.505,0.283813,
2.5055,0.26825,
2.506,0.122375,
2.5065,0.0517273,
2.507,0.121155,
2.5075,0.113831,
2.508,-0.0543213,
2.5085,-0.226746,
2.509,-0.328217,
2.5095,-0.43045,
2.51,-0.562592,
2.5105,-0.655975,
2.511,-0.600128,
2.5115,-0.357971,
2.512,-0.00534058,
2.5125,0.205231,
2.513,0.232544,
2.5135,0.352631,
2.514,0.510712,
2.5145,0.442963,
2.515,0.250549,
2.5155,0.243988,
2.516,0.362549,
2.5165,0.329437,
2.517,0.121307,
2.5175,-0.133362,
2.518,-0.314331,
2.5185,-0.33905,
2.519,-0.276794,
2.5195,-0.283966,
2.52,-0.385284,
2.5205,-0.435181,
2.521,-0.246582,
2.5215,0.209961,
2.522,0.629883,
2.5225,0.660095,
2.523,0.385284,
2.5235,0.157318,
2.524,0.157166,
2.5245,0.220184,
2.525,0.176849,
2.5255,0.0369263,
2.526,-0.193176,
2.5265,-0.386505,
2.527,-0.536041,
2.5275,-0.827332,
2.528,-1.18393,
2.5285,-1.35025,
2.529,-1.26587,
2.5295,-0.94635,
2.53,-0.517273,
2.5305,-0.253601,
2.531,-0.0106812,
2.5315,0.666046,
2.532,1.55945,
2.5325,1.91238,
2.533,1.58493,
2.5335,0.99884,
2.534,0.489502,
2.5345,0.195618,
2.535,0.0927734,
2.5355,0.0532532,
2.536,0.0395203,
2.5365,0.0550842,
2.537,0.0965881,
2.5375,0.124969,
2.538,0.10498,
2.5385,0.0515747,
2.539,-0.00137329,
2.5395,-0.0592041,
2.54,-0.140533,
2.5405,-0.214539,
2.541,-0.293884,
2.5415,-0.395508,
2.542,-0.439453,
2.5425,-0.373077,
2.543,-0.272217,
2.5435,-0.22171,
2.544,-0.13031,
2.5445,0.106964,
2.545,0.359955,
2.5455,0.567474,
2.546,0.677795,
2.5465,0.565643,
2.547,0.308228,
2.5475,0.111694,
2.548,0.022583,
2.5485,-0.0396729,
2.549,-0.106659,
2.5495,-0.13504,
2.55,-0.101471,
2.5505,-0.0556946,
2.551,-0.0534058,
2.5515,-0.0753784,
2.552,-0.0900269,
2.5525,-0.102539,
2.553,-0.12207,
2.5535,-0.121918,
2.554,-0.0759888,
2.5545,-0.0276184,
2.555,-0.0180054,
2.5555,-0.0526428,
2.556,-0.128937,
2.5565,-0.191498,
2.557,-0.245361,
2.5575,-0.349274,
2.558,-0.462799,
2.5585,-0.502472,
2.559,-0.457153,
2.5595,-0.25528,
2.56,0.164337,
2.5605,0.506744,
2.561,0.491638,
2.5615,0.261078,
2.562,0.0180054,
2.5625,-0.159454,
2.563,-0.25238,
2.5635,-0.269928,
2.564,-0.258484,
2.5645,-0.265198,
2.565,-0.299835,
2.5655,-0.430145,
2.566,-0.744171,
2.5665,-1.08704,
2.567,-1.23169,
2.5675,-1.23032,
2.568,-1.20819,
2.5685,-1.14227,
2.569,-1.01364,
2.5695,-0.68924,
2.57,0.0904846,
2.5705,0.980988,
2.571,1.32782,
2.5715,1.14059,
2.572,0.834656,
2.5725,0.843506,
2.573,1.28754,
2.5735,1.70792,
2.574,1.53793,
2.5745,0.939026,
2.575,0.474243,
2.5755,0.28656,
2.576,0.192261,
2.5765,0.130157,
2.577,0.112915,
2.5775,0.101166,
2.578,0.0822449,
2.5785,0.0863647,
2.579,0.101471,
2.5795,0.0680542,
2.58,0.0134277,
2.5805,0.0839233,
2.581,0.225067,
2.5815,0.17746,
2.582,-0.0325012,
2.5825,-0.141144,
2.583,-0.0733948,
2.5835,0.0202942,
2.584,0.00976563,
2.5845,-0.120239,
2.585,-0.271759,
2.5855,-0.345612,
2.586,-0.357513,
2.5865,-0.439453,
2.587,-0.597839,
2.5875,-0.5867,
2.588,-0.26001,
2.5885,0.0746155,
2.589,0.13443,
2.5895,0.0543213,
2.59,0.0578308,
2.5905,0.221863,
2.591,0.540009,
2.5915,0.716248,
2.592,0.452728,
2.5925,0.0135803,
2.593,-0.197906,
2.5935,-0.175781,
2.594,-0.103455,
2.5945,-0.0389099,
2.595,0.0509644,
2.5955,0.233307,
2.596,0.44342,
2.5965,0.417786,
2.597,0.140533,
2.5975,-0.0672913,
2.598,-0.0900269,
2.5985,-0.0494385,
2.599,-0.0233459,
2.5995,0.00396729,
2.6,0.0109863,
2.6005,-0.0691223,
2.601,-0.182648,
2.6015,-0.226746,
2.602,-0.184937,
2.6025,-0.132446,
2.603,-0.136414,
2.6035,-0.161743,
2.604,-0.149994,
2.6045,-0.0674438,
2.605,0.00671387,
2.6055,-0.0108337,
2.606,-0.0558472,
2.6065,-0.0836182,
2.607,-0.123444,
2.6075,-0.220337,
2.608,-0.377808,
2.6085,-0.492859,
2.609,-0.48111,
2.6095,-0.384216,
2.61,-0.26825,
2.6105,-0.184479,
2.611,-0.0784302,
2.6115,0.098877,
2.612,0.232391,
2.6125,0.265045,
2.613,0.361938,
2.6135,0.452728,
2.614,0.413208,
2.6145,0.282898,
2.615,0.0709534,
2.6155,-0.138245,
2.616,-0.20874,
2.6165,-0.125885,
2.617,0.0218201,
2.6175,0.135651,
2.618,0.176086,
2.6185,0.115051,
2.619,-0.109406,
2.6195,-0.516815,
2.62,-1.02417,
2.6205,-1.40549,
2.621,-1.43448,
2.6215,-1.19629,
2.622,-0.905457,
2.6225,-0.297394,
2.623,0.900269,
2.6235,1.87119,
2.624,1.88324,
2.6245,1.33957,
2.625,0.76767,
2.6255,0.386353,
2.626,0.172577,
2.6265,-0.0109863,
2.627,-0.106506,
2.6275,-0.0302124,
2.628,0.0964355,
2.6285,0.157471,
2.629,0.172272,
2.6295,0.177307,
2.63,0.14801,
2.6305,0.0205994,
2.631,-0.130463,
2.6315,-0.19516,
2.632,-0.275879,
2.6325,-0.405121,
2.633,-0.430908,
2.6335,-0.340424,
2.634,-0.263062,
2.6345,-0.288239,
2.635,-0.360107,
2.6355,-0.280151,
2.636,0.00930786,
2.6365,0.245209,
2.637,0.296783,
2.6375,0.308685,
2.638,0.285645,
2.6385,0.189362,
2.639,0.115662,
2.6395,0.110779,
2.64,0.134735,
2.6405,0.226746,
2.641,0.327148,
2.6415,0.267029,
2.642,0.11673,
2.6425,0.045929,
2.643,0.14328,
2.6435,0.309601,
2.644,0.243378,
2.6445,-0.045166,
2.645,-0.350189,
2.6455,-0.56778,
2.646,-0.699158,
2.6465,-0.753784,
2.647,-0.713348,
2.6475,-0.618896,
2.648,-0.540009,
2.6485,-0.378265,
2.649,0.00656128,
2.6495,0.51239,
2.65,0.9375,
2.6505,1.00601,
2.651,0.687714,
2.6515,0.327148,
2.652,0.138855,
2.6525,0.114288,
2.653,0.143585,
2.6535,0.124817,
2.654,0.0636292,
2.6545,-0.00167847,
2.655,-0.0648499,
2.6555,-0.14328,
2.656,-0.238495,
2.6565,-0.318451,
2.657,-0.337524,
2.6575,-0.310516,
2.658,-0.298615,
2.6585,-0.292511,
2.659,-0.18219,
2.6595,0.0971985,
2.66,0.311127,
2.6605,0.306091,
2.661,0.294189,
2.6615,0.267487,
2.662,0.13031,
2.6625,0.0132751,
2.663,0.00656128,
2.6635,0.0213623,
2.664,-0.0796509,
2.6645,-0.242004,
2.665,-0.261993,
2.6655,-0.108948,
2.666,0.0881958,
2.6665,0.139771,
2.667,0.0370789,
2.6675,0.0320435,
2.668,0.167084,
2.6685,0.176544,
2.669,-0.0689697,
2.6695,-0.350952,
2.67,-0.498047,
2.6705,-0.570068,
2.671,-0.585327,
2.6715,-0.531006,
2.672,-0.389404,
2.6725,-0.0567627,
2.673,0.31662,
2.6735,0.40741,
2.674,0.324249,
2.6745,0.375214,
2.675,0.402832,
2.6755,0.215149,
2.676,0.0718689,
2.6765,0.091095,
2.677,0.0941467,
2.6775,0.0680542,
2.678,0.0695801,
2.6785,0.0765991,
2.679,0.21347,
2.6795,0.463562,
2.68,0.430603,
2.6805,0.140839,
2.681,-0.0550842,
2.6815,-0.0874329,
2.682,-0.0923157,
2.6825,-0.133057,
2.683,-0.167389,
2.6835,-0.164185,
2.684,-0.145111,
2.6845,-0.128326,
2.685,-0.114746,
2.6855,-0.087738,
2.686,-0.0628662,
2.6865,-0.0886536,
2.687,-0.20813,
2.6875,-0.375824,
2.688,-0.475159,
2.6885,-0.482025,
2.689,-0.452881,
2.6895,-0.398865,
2.69,-0.309143,
2.6905,-0.104065,
2.691,0.232391,
2.6915,0.504303,
2.692,0.505219,
2.6925,0.200958,
2.693,-0.15686,
2.6935,-0.284882,
2.694,-0.103607,
2.6945,0.256042,
2.695,0.602264,
2.6955,0.690308,
2.696,0.504913,
2.6965,0.391846,
2.697,0.378876,
2.6975,0.274353,
2.698,0.0866699,
2.6985,-0.0930786,
2.699,-0.25589,
2.6995,-0.351105,
2.7,-0.356903,
2.7005,-0.313873,
2.701,-0.290527,
2.7015,-0.216217,
2.702,0.0354004,
2.7025,0.253143,
2.703,0.240479,
2.7035,0.17395,
2.704,0.157623,
2.7045,0.145264,
2.705,0.0778198,
2.7055,-0.0114441,
2.706,-0.00488281,
2.7065,0.0640869,
2.707,0.130463,
2.7075,0.159302,
2.708,0.0746155,
2.7085,-0.102539,
2.709,-0.267487,
2.7095,-0.349579,
2.71,-0.33844,
2.7105,-0.273132,
2.711,-0.239105,
2.7115,-0.19165,
2.712,-0.0320435,
2.7125,0.16861,
2.713,0.272217,
2.7135,0.206146,
2.714,0.0134277,
2.7145,-0.250244,
2.715,-0.549469,
2.7155,-0.678711,
2.716,-0.581055,
2.7165,-0.522308,
2.717,-0.533142,
2.7175,-0.199127,
2.718,0.56427,
2.7185,1.07559,
2.719,0.877686,
2.7195,0.369568,
2.72,0.0520325,
2.7205,-0.0776672,
2.721,-0.245209,
2.7215,-0.431519,
2.722,-0.530701,
2.7225,-0.462952,
2.723,-0.0610352,
2.7235,0.447388,
2.724,0.525055,
2.7245,0.258789,
2.725,0.0935364,
2.7255,0.156555,
2.726,0.335388,
2.7265,0.489197,
2.727,0.417328,
2.7275,0.145111,
2.728,0.0793457,
2.7285,0.283051,
2.729,0.40802,
2.7295,0.293732,
2.73,0.109253,
2.7305,0.0276184,
2.731,0.00213623,
2.7315,-0.105896,
2.732,-0.26062,
2.7325,-0.257416,
2.733,-0.0717163,
2.7335,0.115051,
2.734,0.170898,
2.7345,0.141754,
2.735,0.103302,
2.7355,0.0590515,
2.736,-0.00961304,
2.7365,-0.133667,
2.737,-0.316772,
2.7375,-0.547791,
2.738,-0.720673,
2.7385,-0.682983,
2.739,-0.501099,
2.7395,-0.443573,
2.74,-0.555267,
2.7405,-0.535736,
2.741,-0.125885,
2.7415,0.375977,
2.742,0.651398,
2.7425,0.739288,
2.743,0.679016,
2.7435,0.437012,
2.744,0.116577,
2.7445,-0.0769043,
2.745,-0.110626,
2.7455,-0.0897217,
2.746,-0.00778198,
2.7465,0.0714111,
2.747,0.00976563,
2.7475,-0.112762,
2.748,-0.172424,
2.7485,-0.0926208,
2.749,0.0927734,
2.7495,0.132294,
2.75,0.0221252,
2.7505,0.0230408,
2.751,-0.055542,
2.7515,-0.537567,
2.752,-1.00067,
2.7525,-0.922852,
2.753,-0.45639,
2.7535,-0.234375,
2.754,-0.301514,
2.7545,0.105591,
2.755,1.09146,
2.7555,1.50818,
2.756,0.959778,
2.7565,0.356903,
2.757,0.202179,
2.7575,0.220642,
2.758,0.154572,
2.7585,0.0334167,
2.759,-0.0721741,
2.7595,-0.140533,
2.76,-0.168304,
2.7605,-0.151825,
2.761,-0.137939,
2.7615,-0.288544,
2.762,-0.596466,
2.7625,-0.782318,
2.763,-0.792847,
2.7635,-0.712585,
2.764,-0.536804,
2.7645,-0.233002,
2.765,0.224609,
2.7655,0.661926,
2.766,0.896912,
2.7665,0.909576,
2.767,0.665741,
2.7675,0.349884,
2.768,0.158234,
2.7685,0.098114,
2.769,0.0601196,
2.7695,0.00595093,
2.77,-0.0149536,
2.7705,0.0289917,
2.771,0.0559998,
2.7715,0.0376892,
2.772,0.0109863,
2.7725,-0.0605774,
2.773,-0.175934,
2.7735,-0.223694,
2.774,-0.133362,
2.7745,0.0222778,
2.775,0.16449,
2.7755,0.249023,
2.776,0.194855,
2.7765,0.0308228,
2.777,-0.0933838,
2.7775,-0.132599,
2.778,-0.155334,
2.7785,-0.141754,
2.779,-0.0405884,
2.7795,0.0965881,
2.78,0.0836182,
2.7805,-0.101624,
2.781,-0.1474,
2.7815,0.0559998,
2.782,0.206757,
2.7825,0.118866,
2.783,-0.105591,
2.7835,-0.320892,
2.784,-0.440216,
2.7845,-0.467072,
2.785,-0.380707,
2.7855,-0.0788879,
2.786,0.249176,
2.7865,0.209656,
2.787,0.0935364,
2.7875,0.331573,
2.788,0.563965,
2.7885,0.462189,
2.789,0.210266,
2.7895,-0.0305176,
2.79,-0.223236,
2.7905,-0.320892,
2.791,-0.271454,
2.7915,-0.120239,
2.792,0.01297,
2.7925,0.00640869,
2.793,-0.0993347,
2.7935,-0.140381,
2.794,-0.0839233,
2.7945,-0.0601196,
2.795,-0.119171,
2.7955,-0.170593,
2.796,-0.155029,
2.7965,-0.132751,
2.797,-0.164948,
2.7975,-0.195465,
2.798,-0.159302,
2.7985,-0.14328,
2.799,-0.193481,
2.7995,-0.199585,
2.8,-0.127106,
2.8005,-0.103455,
2.801,-0.188446,
2.8015,-0.325775,
2.802,-0.42923,
2.8025,-0.401001,
2.803,-0.274048,
2.8035,-0.29892,
2.804,-0.486908,
2.8045,-0.593262,
2.805,-0.20813,
2.8055,0.710449,
2.806,1.1972,
2.8065,0.644836,
2.807,-0.324707,
2.8075,-0.891724,
2.808,-0.891724,
2.8085,-0.480347,
2.809,0.178833,
2.8095,0.90683,
2.81,1.64536,
2.8105,1.75644,
2.811,1.02142,
2.8115,0.26947,
2.812,-0.0566101,
2.8125,-0.139008,
2.813,-0.125427,
2.8135,-0.04776,
2.814,-0.0190735,
2.8145,-0.108032,
2.815,-0.214996,
2.8155,-0.197754,
2.816,-0.0952148,
2.8165,-0.00411987,
2.817,0.0819397,
2.8175,0.280914,
2.818,0.503998,
2.8185,0.387421,
2.819,0.08255,
2.8195,-0.00106812,
2.82,0.147705,
2.8205,0.245209,
2.821,0.169525,
2.8215,0.0541687,
2.822,-0.0318909,
2.8225,-0.139771,
2.823,-0.2565,
2.8235,-0.295868,
2.824,-0.260162,
2.8245,-0.263672,
2.825,-0.254669,
2.8255,-0.0639343,
2.826,0.267944,
2.8265,0.594482,
2.827,0.59082,
2.8275,0.238647,
2.828,-0.0616455,
2.8285,-0.148621,
2.829,-0.145264,
2.8295,-0.0686646,
2.83,0.0949097,
2.8305,0.192719,
2.831,0.16571,
2.8315,0.098877,
2.832,0.0222778,
2.8325,-0.0704956,
2.833,-0.167389,
2.8335,-0.22995,
2.834,-0.223389,
2.8345,-0.195465,
2.835,-0.196686,
2.8355,-0.158081,
2.836,-0.0756836,
2.8365,-0.0440979,
2.837,-0.0942993,
2.8375,-0.160065,
2.838,-0.192413,
2.8385,-0.190277,
2.839,-0.174408,
2.8395,-0.150146,
2.84,-0.103149,
2.8405,-0.088501,
2.841,-0.166016,
2.8415,-0.219116,
2.842,-0.113678,
2.8425,-0.0012207,
2.843,0.000915527,
2.8435,-0.00656128,
2.844,0.0440979,
2.8445,0.0773621,
2.845,0.0762939,
2.8455,0.0572205,
2.846,-0.00457764,
2.8465,-0.106506,
2.847,-0.202637,
2.8475,-0.273438,
2.848,-0.357971,
2.8485,-0.463715,
2.849,-0.542755,
2.8495,-0.474548,
2.85,-0.198059,
2.8505,-0.00549316,
2.851,-0.0495911,
2.8515,-0.0541687,
2.852,0.0292969,
2.8525,0.0849915,
2.853,0.172424,
2.8535,0.389252,
2.854,0.628052,
2.8545,0.679169,
2.855,0.462952,
2.8555,0.204163,
2.856,0.141754,
2.8565,0.125427,
2.857,0.0233459,
2.8575,-0.00808716,
2.858,0.0765991,
2.8585,0.11673,
2.859,0.101929,
2.8595,0.144348,
2.86,0.162354,
2.8605,0.0970459,
2.861,-0.0157166,
2.8615,-0.149689,
2.862,-0.249786,
2.8625,-0.255127,
2.863,-0.222473,
2.8635,-0.240631,
2.864,-0.235901,
2.8645,-0.0935364,
2.865,0.10437,
2.8655,0.199738,
2.866,0.197906,
2.8665,0.187225,
2.867,0.199738,
2.8675,0.201416,
2.868,0.119934,
2.8685,-0.0119019,
2.869,-0.0942993,
2.8695,-0.139618,
2.87,-0.194702,
2.8705,-0.21759,
2.871,-0.169067,
2.8715,-0.022583,
2.872,0.144348,
2.8725,0.132141,
2.873,-0.0256348,
2.8735,-0.158844,
2.874,-0.231934,
2.8745,-0.288086,
2.875,-0.282288,
2.8755,-0.194092,
2.876,-0.057373,
2.8765,0.193481,
2.877,0.444183,
2.8775,0.319672,
2.878,-0.0567627,
2.8785,-0.308838,
2.879,-0.469666,
2.8795,-0.613708,
2.88,-0.674591,
2.8805,-0.639648,
2.881,-0.441437,
2.8815,0.018158,
2.882,0.607758,
2.8825,0.956421,
2.883,0.85556,
2.8835,0.579987,
2.884,0.466919,
2.8845,0.463562,
2.885,0.340271,
2.8855,0.148621,
2.886,0.0547791,
2.8865,0.0387573,
2.887,0.0404358,
2.8875,0.0611877,
2.888,0.0460815,
2.8885,-0.0236511,
2.889,-0.0698853,
2.8895,-0.0439453,
2.89,0.025177,
2.8905,0.124664,
2.891,0.219574,
2.8915,0.20401,
2.892,0.0578308,
2.8925,-0.0834656,
2.893,-0.132446,
2.8935,-0.136108,
2.894,-0.119629,
2.8945,-0.0616455,
2.895,-0.0216675,
2.8955,-0.0814819,
2.896,-0.196686,
2.8965,-0.258789,
2.897,-0.262909,
2.8975,-0.327606,
2.898,-0.393677,
2.8985,-0.221558,
2.899,0.150452,
2.8995,0.414124,
2.9,0.402985,
2.9005,0.233459,
2.901,0.0822449,
2.9015,0.0286865,
2.902,-0.00518799,
2.9025,-0.149384,
2.903,-0.295868,
2.9035,-0.241241,
2.904,-0.0630188,
2.9045,0.0579834,
2.905,0.0483704,
2.9055,0.065918,
2.906,0.292969,
2.9065,0.363464,
2.907,0.065155,
2.9075,-0.257568,
2.908,-0.393677,
2.9085,-0.311584,
2.909,-0.0132751,
2.9095,0.25589,
2.91,0.245056,
2.9105,0.103607,
2.911,0.0997925,
2.9115,0.201111,
2.912,0.20462,
2.9125,0.0857544,
2.913,0,
2.9135,0.00106812,
2.914,-0.0273132,
2.9145,-0.108948,
2.915,0.0108337,
2.9155,0.349274,
2.916,0.460815,
2.9165,0.295868,
2.917,0.117188,
2.9175,0.0279236,
2.918,-0.0106812,
2.9185,-0.0584412,
2.919,-0.14801,
2.9195,-0.232849,
2.92,-0.216064,
2.9205,-0.100555,
2.921,0.00610352,
2.9215,-0.000610352,
2.922,-0.192108,
2.9225,-0.615845,
2.923,-1.15723,
2.9235,-1.58051,
2.924,-1.79672,
2.9245,-1.8512,
2.925,-1.69464,
2.9255,-1.15906,
2.926,-0.0521851,
2.9265,1.44455,
2.927,2.54959,
2.9275,2.73331,
2.928,2.21359,
2.9285,1.39633,
2.929,0.64682,
2.9295,0.220337,
2.93,0.115814,
2.9305,0.179443,
2.931,0.258636,
2.9315,0.259247,
2.932,0.19577,
2.9325,0.135803,
2.933,0.0695801,
2.9335,-0.00930786,
2.934,-0.0698853,
2.9345,-0.0900269,
2.935,-0.0747681,
2.9355,-0.0405884,
2.936,-0.0395203,
2.9365,-0.117035,
2.937,-0.187531,
2.9375,-0.158539,
2.938,-0.123749,
2.9385,-0.200043,
2.939,-0.288391,
2.9395,-0.248413,
2.94,-0.147247,
2.9405,-0.131073,
2.941,-0.149384,
2.9415,-0.101776,
2.942,-0.0253296,
2.9425,-0.00534058,
2.943,-0.0170898,
2.9435,0.00534058,
2.944,0.0276184,
2.9445,-0.000762939,
2.945,-0.108643,
2.9455,-0.251923,
2.946,-0.308533,
2.9465,-0.202179,
2.947,-0.0268555,
2.9475,0.0679016,
2.948,0.0595093,
2.9485,0.00778198,
2.949,-0.0242615,
2.9495,-0.0265503,
2.95,-0.0450134,
2.9505,-0.0956726,
2.951,-0.135803,
2.9515,-0.112305,
2.952,-0.0302124,
2.9525,0.0343323,
2.953,0.00656128,
2.9535,-0.108185,
2.954,-0.222626,
2.9545,-0.279999,
2.955,-0.33432,
2.9555,-0.4422,
2.956,-0.538177,
2.9565,-0.522156,
2.957,-0.464935,
2.9575,-0.501404,
2.958,-0.400696,
2.9585,0.100861,
2.959,0.524902,
2.9595,0.325775,
2.96,-0.116119,
2.9605,-0.252838,
2.961,-0.142975,
2.9615,0.0152588,
2.962,0.352783,
2.9625,0.791321,
2.963,0.915527,
2.9635,0.607452,
2.964,0.212555,
2.9645,0.0665283,
2.965,0.155945,
2.9655,0.250549,
2.966,0.234985,
2.9665,0.145874,
2.967,0.0205994,
2.9675,-0.0776672,
2.968,-0.0735474,
2.9685,-0.0105286,
2.969,-0.0131226,
2.9695,-0.0637817,
2.97,-0.0157166,
2.9705,0.0740051,
2.971,0.0538635,
2.9715,0.0149536,
2.972,0.0428772,
2.9725,0.0610352,
2.973,0.0265503,
2.9735,-0.0141907,
2.974,-0.0257874,
2.9745,-0.0144958,
2.975,0.0154114,
2.9755,0.0488281,
2.976,0.0524902,
2.9765,0.0138855,
2.977,-0.113831,
2.9775,-0.404053,
2.978,-0.85968,
2.9785,-1.38657,
2.979,-1.75552,
2.9795,-1.79489,
2.98,-1.61102,
2.9805,-1.4212,
2.981,-0.900726,
2.9815,0.768738,
2.982,3.02902,
2.9825,3.64761,
2.983,2.2673,
2.9835,0.790405,
2.984,0.237885,
2.9845,0.115356,
2.985,-0.0849915,
2.9855,-0.310974,
2.986,-0.378876,
2.9865,-0.287323,
2.987,-0.161438,
2.9875,-0.134735,
2.988,-0.157318,
2.9885,0.00839233,
2.989,0.19928,
2.9895,0.110474,
2.99,-0.0349426,
2.9905,0.00762939,
2.991,0.101776,
2.9915,0.17334,
2.992,0.243378,
2.9925,0.176849,
2.993,-0.0566101,
2.9935,-0.279541,
2.994,-0.332642,
2.9945,-0.273285,
2.995,-0.286102,
2.9955,-0.32196,
2.996,-0.025177,
2.9965,0.569458,
2.997,0.813446,
2.9975,0.471344,
2.998,0.00518799,
2.9985,-0.105896,
2.999,0.0787354,
2.9995,0.128479,
3,-0.0257874,
3.0005,-0.140686,
3.001,-0.112457,
3.0015,-0.0744629,
3.002,-0.113068,
3.0025,-0.134735,
3.003,-0.0793457,
3.0035,-0.0360107,
3.004,-0.104218,
3.0045,-0.247955,
3.005,-0.338745,
3.0055,-0.338593,
3.006,-0.31723,
3.0065,-0.264893,
3.007,-0.0765991,
3.0075,0.219116,
3.008,0.363464,
3.0085,0.144653,
3.009,-0.0721741,
3.0095,0.0967407,
3.01,0.332336,
3.0105,0.288391,
3.011,0.0921631,
3.0115,-0.0375366,
3.012,-0.059967,
3.0125,-0.0169373,
3.013,0.0263977,
3.0135,0.0265503,
3.014,0.0219727,
3.0145,0.027771,
3.015,-0.000305176,
3.0155,-0.0837708,
3.016,-0.1651,
3.0165,-0.148315,
3.017,-0.06073,
3.0175,-0.0236511,
3.018,-0.0471497,
3.0185,-0.0552368,
3.019,-0.0294495,
3.0195,-0.0276184,
3.02,-0.0231934,
3.0205,0.0390625,
3.021,0.111237,
3.0215,0.111847,
3.022,0.062561,
3.0225,0.0195313,
3.023,0.0202942,
3.0235,0.0601196,
3.024,0.0686646,
3.0245,-0.018158,
3.025,-0.17807,
3.0255,-0.313721,
3.026,-0.308685,
3.0265,-0.186157,
3.027,-0.0382996,
3.0275,0.0828552,
3.028,0.113983,
3.0285,0.0860596,
3.029,0.115967,
3.0295,0.238342,
3.03,0.317993,
3.0305,0.214996,
3.031,0.0256348,
3.0315,-0.111084,
3.032,-0.155792,
3.0325,-0.1297,
3.033,-0.0819397,
3.0335,-0.0541687,
3.034,-0.0413513,
3.0345,-0.0337219,
3.035,-0.0491333,
3.0355,-0.104523,
3.036,-0.171509,
3.0365,-0.204773,
3.037,-0.194702,
3.0375,-0.16922,
3.038,-0.104523,
3.0385,0.0202942,
3.039,0.0582886,
3.0395,-0.0566101,
3.04,-0.209045,
3.0405,-0.287323,
3.041,-0.240631,
3.0415,-0.160065,
3.042,-0.14328,
3.0425,-0.165558,
3.043,-0.1651,
3.0435,-0.0331116,
3.044,0.171051,
3.0445,0.265198,
3.045,0.278168,
3.0455,0.288849,
3.046,0.31662,
3.0465,0.381775,
3.047,0.351868,
3.0475,0.131531,
3.048,-0.0897217,
3.0485,-0.201569,
3.049,-0.200806,
3.0495,-0.0279236,
3.05,0.2948,
3.0505,0.501709,
3.051,0.397034,
3.0515,0.0767517,
3.052,-0.140991,
3.0525,-0.112762,
3.053,-0.0192261,
3.0535,-0.00747681,
3.054,-0.0312805,
3.0545,-0.050354,
3.055,-0.0914001,
3.0555,-0.163879,
3.056,-0.204468,
3.0565,-0.185394,
3.057,-0.154266,
3.0575,-0.158539,
3.058,-0.214844,
3.0585,-0.232697,
3.059,-0.0982666,
3.0595,0.0648499,
3.06,0.0805664,
3.0605,0.0559998,
3.061,0.142059,
3.0615,0.311584,
3.062,0.377045,
3.0625,0.224457,
3.063,0.00839233,
3.0635,-0.108032,
3.064,-0.132141,
3.0645,-0.143585,
3.065,-0.150757,
3.0655,-0.129089,
3.066,-0.0958252,
3.0665,-0.0543213,
3.067,0.0881958,
3.0675,0.291595,
3.068,0.288391,
3.0685,0.0970459,
3.069,-0.0476074,
3.0695,-0.0769043,
3.07,-0.0498962,
3.0705,-0.0479126,
3.071,-0.112762,
3.0715,-0.128174,
3.072,0.0874329,
3.0725,0.422974,
3.073,0.523071,
3.0735,0.290985,
3.074,0.0210571,
3.0745,-0.0427246,
3.075,-0.0466919,
3.0755,-0.195313,
3.076,-0.370789,
3.0765,-0.417633,
3.077,-0.36438,
3.0775,-0.320435,
3.078,-0.265808,
3.0785,-0.108337,
3.079,0.185699,
3.0795,0.508575,
3.08,0.605774,
3.0805,0.384064,
3.081,0.0617981,
3.0815,-0.0939941,
3.082,-0.0564575,
3.0825,-0.0363159,
3.083,-0.120392,
3.0835,-0.115967,
3.084,0.115967,
3.0845,0.294037,
3.085,0.247192,
3.0855,0.161591,
3.086,0.0421143,
3.0865,-0.106506,
3.087,-0.171509,
3.0875,-0.137939,
3.088,-0.0762939,
3.0885,-0.0543213,
3.089,-0.0823975,
3.0895,-0.108337,
3.09,-0.117493,
3.0905,-0.124512,
3.091,-0.141449,
3.0915,-0.126953,
3.092,-0.063324,
3.0925,-0.0163269,
3.093,-0.00183105,
3.0935,0.0196838,
3.094,0.0752258,
3.0945,0.133514,
3.095,0.141907,
3.0955,0.0973511,
3.096,0.000915527,
3.0965,-0.13382,
3.097,-0.227814,
3.0975,-0.20813,
3.098,-0.126801,
3.0985,-0.0695801,
3.099,-0.0430298,
3.0995,-0.032196,
3.1,-0.0286865,
3.1005,-0.0186157,
3.101,-0.00671387,
3.1015,0.00244141,
3.102,0.022583,
3.1025,0.0463867,
3.103,0.04776,
3.1035,0.0228882,
3.104,-0.0302124,
3.1045,-0.107117,
3.105,-0.164642,
3.1055,-0.133514,
3.106,0.0108337,
3.1065,0.138702,
3.107,0.106506,
3.1075,-0.00610352,
3.108,-0.0559998,
3.1085,-0.0422668,
3.109,-0.0335693,
3.1095,-0.0340271,
3.11,0.0112915,
3.1105,0.108032,
3.111,0.159302,
3.1115,0.091095,
3.112,-0.0213623,
3.1125,-0.0784302,
3.113,-0.0892639,
3.1135,-0.151978,
3.114,-0.220337,
3.1145,-0.154724,
3.115,-0.00686646,
3.1155,0.127258,
3.116,0.215149,
3.1165,0.198364,
3.117,0.12558,
3.1175,0.088501,
3.118,0.0735474,
3.1185,-0.000610352,
3.119,-0.128021,
3.1195,-0.203094,
3.12,-0.151825,
3.1205,-0.00732422,
3.121,0.0973511,
3.1215,0.102539,
3.122,0.0706482,
3.1225,0.0335693,
3.123,0.00686646,
3.1235,0.0213623,
3.124,0.0538635,
3.1245,0.0735474,
3.125,0.0814819,
3.1255,0.0720215,
3.126,0.0350952,
3.1265,-0.00991821,
3.127,-0.0239563,
3.1275,-0.000305176,
3.128,0.025177,
3.1285,0.0158691,
3.129,0.000305176,
3.1295,0.00915527,
3.13,-0.0276184,
3.1305,-0.129547,
3.131,-0.240326,
3.1315,-0.358734,
3.132,-0.483704,
3.1325,-0.587616,
3.133,-0.614929,
3.1335,-0.432739,
3.134,-0.192261,
3.1345,-0.118256,
3.135,0.0700378,
3.1355,0.407715,
3.136,0.483398,
3.1365,0.3302,
3.137,0.359955,
3.1375,0.660248,
3.138,0.815125,
3.1385,0.607452,
3.139,0.264435,
3.1395,0.0439453,
3.14,-0.0297546,
3.1405,-0.0437927,
3.141,-0.0424194,
3.1415,-0.0268555,
3.142,-0.0201416,
3.1425,-0.00335693,
3.143,0.0695801,
3.1435,0.128174,
3.144,0.096283,
3.1445,0.0453186,
3.145,0.0260925,
3.1455,0.00289917,
3.146,-0.0689697,
3.1465,-0.193481,
3.147,-0.265045,
3.1475,-0.205841,
3.148,-0.134735,
3.1485,-0.116272,
3.149,-0.0706482,
3.1495,0.0117493,
3.15,0.138397,
3.1505,0.317535,
3.151,0.30777,
3.1515,-0.00106812,
3.152,-0.330048,
3.1525,-0.434113,
3.153,-0.430145,
3.1535,-0.396729,
3.154,-0.137482,
3.1545,0.392151,
3.155,0.823975,
3.1555,0.774078,
3.156,0.33432,
3.1565,-0.0700378,
3.157,-0.243835,
3.1575,-0.291138,
3.158,-0.293274,
3.1585,-0.280151,
3.159,-0.226898,
3.1595,-0.116119,
3.16,-0.0218201,
3.1605,0.0175476,
3.161,0.0184631,
3.1615,0.000152588,
3.162,-0.1091,
3.1625,-0.281677,
3.163,-0.200195,
3.1635,0.158386,
3.164,0.29892,
3.1645,0.00183105,
3.165,-0.357971,
3.1655,-0.380707,
