0,0.0276184,
0.0005,0.03479,
0.001,0.0439453,
0.0015,0.0415039,
0.002,0.0128174,
0.0025,-0.0177002,
0.003,-0.0357056,
0.0035,-0.0480652,
0.004,-0.0424194,
0.0045,-0.0315857,
0.005,-0.0309753,
0.0055,-0.0392151,
0.006,-0.0450134,
0.0065,-0.0437927,
0.007,-0.017395,
0.0075,0.0344849,
0.008,0.0514221,
0.0085,0.0230408,
0.009,-0.0108337,
0.0095,-0.0248718,
0.01,-0.025177,
0.0105,-0.0233459,
0.011,-0.00686646,
0.0115,0.0331116,
0.012,0.0646973,
0.0125,0.0628662,
0.013,0.045929,
0.0135,0.032196,
0.014,0.0177002,
0.0145,0.0120544,
0.015,0.0212097,
0.0155,0.0337219,
0.016,0.0378418,
0.0165,0.0398254,
0.017,0.0473022,
0.0175,0.055542,
0.018,0.0506592,
0.0185,0.0357056,
0.019,0.0164795,
0.0195,-0.00579834,
0.02,-0.0224304,
0.0205,-0.030365,
0.021,-0.0250244,
0.0215,-0.00640869,
0.022,0.00366211,
0.0225,-0.00244141,
0.023,-0.00823975,
0.0235,-0.0117493,
0.024,-0.00976563,
0.0245,-0.00610352,
0.025,-0.00640869,
0.0255,-0.00640869,
0.026,-0.00320435,
0.0265,0.00137329,
0.027,0.00518799,
0.0275,0.00488281,
0.028,0.00411987,
0.0285,0.00259399,
0.029,0.000610352,
0.0295,-0.00335693,
0.03,-0.00518799,
0.0305,-0.00579834,
0.031,-0.00442505,
0.0315,-0.00900269,
0.032,-0.0192261,
0.0325,-0.0254822,
0.033,-0.0276184,
0.0335,-0.0250244,
0.034,-0.0205994,
0.0345,-0.0202942,
0.035,-0.0230408,
0.0355,-0.0250244,
0.036,-0.018158,
0.0365,-0.00411987,
0.037,0.0247192,
0.0375,0.0526428,
0.038,0.0520325,
0.0385,0.0354004,
0.039,0.0299072,
0.0395,0.0325012,
0.04,0.018158,
0.0405,0.00198364,
0.041,-0.00610352,
0.0415,-0.0209045,
0.042,-0.0468445,
0.0425,-0.0784302,
0.043,-0.0979614,
0.0435,-0.0921631,
0.044,-0.070343,
0.0445,-0.0512695,
0.045,-0.0357056,
0.0455,-0.025177,
0.046,-0.0227356,
0.0465,-0.0268555,
0.047,-0.0265503,
0.0475,-0.0215149,
0.048,-0.0120544,
0.0485,-0.00137329,
0.049,0.0088501,
0.0495,0.0212097,
0.05,0.0311279,
0.0505,0.0360107,
0.051,0.0337219,
0.0515,0.0299072,
0.052,0.0201416,
0.0525,0.00991821,
0.053,0.00320435,
0.0535,0.000305176,
0.054,-0.00823975,
0.0545,-0.0387573,
0.055,-0.0744629,
0.0555,-0.0770569,
0.056,-0.0546265,
0.0565,-0.0338745,
0.057,-0.0212097,
0.0575,-0.0112915,
0.058,-0.00823975,
0.0585,-0.0149536,
0.059,-0.0192261,
0.0595,-0.0178528,
0.06,-0.0143433,
0.0605,-0.014801,
0.061,-0.00793457,
0.0615,0.0138855,
0.062,0.0291443,
0.0625,0.0177002,
0.063,0.00106812,
0.0635,0.000915527,
0.064,0.0231934,
0.0645,0.0514221,
0.065,0.0680542,
0.0655,0.0746155,
0.066,0.0648499,
0.0665,0.0250244,
0.067,-0.0408936,
0.0675,-0.111542,
0.068,-0.162811,
0.0685,-0.151215,
0.069,-0.0576782,
0.0695,0.0523376,
0.07,0.092926,
0.0705,0.0772095,
0.071,0.0694275,
0.0715,0.0648499,
0.072,0.0469971,
0.0725,0.0215149,
0.073,0.00518799,
0.0735,0.0100708,
0.074,0.0245667,
0.0745,0.0341797,
0.075,0.0302124,
0.0755,0.0128174,
0.076,-0.00900269,
0.0765,-0.0289917,
0.077,-0.0422668,
0.0775,-0.04776,
0.078,-0.0424194,
0.0785,-0.0244141,
0.079,-0.00549316,
0.0795,0.0149536,
0.08,0.0123596,
0.0805,-0.0102234,
0.081,-0.0218201,
0.0815,-0.0193787,
0.082,-0.0120544,
0.0825,-0.00473022,
0.083,0.00244141,
0.0835,0.00320435,
0.084,-0.000915527,
0.0845,-0.00564575,
0.085,-0.0108337,
0.0855,-0.0169373,
0.086,-0.0212097,
0.0865,-0.019989,
0.087,-0.0201416,
0.0875,-0.0205994,
0.088,-0.0204468,
0.0885,-0.0204468,
0.089,-0.0177002,
0.0895,-0.0158691,
0.09,-0.0128174,
0.0905,-0.00106812,
0.091,0.0189209,
0.0915,0.040741,
0.092,0.0553894,
0.0925,0.0598145,
0.093,0.0526428,
0.0935,0.0360107,
0.094,0.0195313,
0.0945,0.0109863,
0.095,0.00198364,
0.0955,-0.0108337,
0.096,-0.0219727,
0.0965,-0.0254822,
0.097,-0.0184631,
0.0975,-0.00595093,
0.098,-0.00442505,
0.0985,-0.00930786,
0.099,-0.00946045,
0.0995,-0.00579834,
0.1,-0.00473022,
0.1005,-0.00823975,
0.101,-0.0128174,
0.1015,-0.0108337,
0.102,-0.00595093,
0.1025,-0.0038147,
0.103,-0.00152588,
0.1035,0.00442505,
0.104,0.00915527,
0.1045,0.0109863,
0.105,0.0183105,
0.1055,0.0285339,
0.106,0.0364685,
0.1065,0.0408936,
0.107,0.0372314,
0.1075,0.0213623,
0.108,0.00198364,
0.1085,-0.0190735,
0.109,-0.0408936,
0.1095,-0.0469971,
0.11,-0.0302124,
0.1105,-0.00961304,
0.111,-0.000457764,
0.1115,0.00167847,
0.112,0.00686646,
0.1125,0.0119019,
0.113,0.014801,
0.1135,0.0141907,
0.114,0.0108337,
0.1145,0.00808716,
0.115,0.00808716,
0.1155,0.00289917,
0.116,-0.00991821,
0.1165,-0.0305176,
0.117,-0.0442505,
0.1175,-0.0431824,
0.118,-0.0238037,
0.1185,-0.00213623,
0.119,0.0183105,
0.1195,0.0279236,
0.12,0.0236511,
0.1205,0.0143433,
0.121,0.00549316,
0.1215,0.000762939,
0.122,-0.00457764,
0.1225,-0.010376,
0.123,-0.0137329,
0.1235,-0.0166321,
0.124,-0.0163269,
0.1245,-0.0143433,
0.125,-0.0119019,
0.1255,-0.00808716,
0.126,-0.000610352,
0.1265,0.00442505,
0.127,0.0131226,
0.1275,0.0230408,
0.128,0.0276184,
0.1285,0.0393677,
0.129,0.0396729,
0.1295,0.0177002,
0.13,-0.00457764,
0.1305,-0.00213623,
0.131,0.0117493,
0.1315,0.00656128,
0.132,-0.00747681,
0.1325,-0.00900269,
0.133,0.0128174,
0.1335,0.0498962,
0.134,0.0613403,
0.1345,0.0254822,
0.135,-0.0289917,
0.1355,-0.0617981,
0.136,-0.0611877,
0.1365,-0.0465393,
0.137,-0.0323486,
0.1375,-0.0282288,
0.138,-0.0326538,
0.1385,-0.0444031,
0.139,-0.050354,
0.1395,-0.0421143,
0.14,-0.0312805,
0.1405,-0.0279236,
0.141,-0.0257874,
0.1415,0.00991821,
0.142,0.0492859,
0.1425,0.0402832,
0.143,0.00747681,
0.1435,-0.0132751,
0.144,-0.0183105,
0.1445,-0.0196838,
0.145,-0.0170898,
0.1455,-0.0131226,
0.146,-0.0154114,
0.1465,-0.0158691,
0.147,-0.0114441,
0.1475,-0.00595093,
0.148,-0.00671387,
0.1485,-0.00946045,
0.149,-0.0088501,
0.1495,-0.00976563,
0.15,-0.0120544,
0.1505,-0.00961304,
0.151,0.00701904,
0.1515,0.0285339,
0.152,0.0268555,
0.1525,0.00854492,
0.153,-0.00335693,
0.1535,-0.00335693,
0.154,0,
0.1545,-0.00167847,
0.155,-0.00289917,
0.1555,-0.00305176,
0.156,-0.000457764,
0.1565,0.00274658,
0.157,0.00366211,
0.1575,0.00411987,
0.158,0.00534058,
0.1585,0.0062561,
0.159,0.00656128,
0.1595,0.00930786,
0.16,0.00839233,
0.1605,0.00411987,
0.161,0.000610352,
0.1615,-0.00198364,
0.162,-0.00198364,
0.1625,0.000457764,
0.163,-0.000305176,
0.1635,-0.00213623,
0.164,-0.00411987,
0.1645,-0.0038147,
0.165,0.00793457,
0.1655,0.019989,
0.166,0.0195313,
0.1665,0.0170898,
0.167,0.0146484,
0.1675,0.00366211,
0.168,-0.0102234,
0.1685,-0.0164795,
0.169,-0.00976563,
0.1695,-0.00457764,
0.17,-0.0038147,
0.1705,-0.00473022,
0.171,-0.00686646,
0.1715,-0.00228882,
0.172,0.00762939,
0.1725,0.00976563,
0.173,0.0050354,
0.1735,-0.00213623,
0.174,-0.00778198,
0.1745,-0.00854492,
0.175,-0.00732422,
0.1755,-0.00320435,
0.176,-0.00167847,
0.1765,-0.0038147,
0.177,-0.00656128,
0.1775,-0.0050354,
0.178,0.000457764,
0.1785,0.00640869,
0.179,0.0170898,
0.1795,0.0222778,
0.18,0.0248718,
0.1805,0.0273132,
0.181,0.0279236,
0.1815,0.0210571,
0.182,0.00869751,
0.1825,0.00396729,
0.183,-0.00839233,
0.1835,-0.0442505,
0.184,-0.0700378,
0.1845,-0.06073,
0.185,-0.0328064,
0.1855,-0.020752,
0.186,-0.0396729,
0.1865,-0.0534058,
0.187,-0.032196,
0.1875,0.00167847,
0.188,0.0184631,
0.1885,0.0204468,
0.189,0.018158,
0.1895,0.0205994,
0.19,0.0257874,
0.1905,0.035553,
0.191,0.0537109,
0.1915,0.0570679,
0.192,0.0265503,
0.1925,-0.0242615,
0.193,-0.0666809,
0.1935,-0.0799561,
0.194,-0.0430298,
0.1945,0.0190735,
0.195,0.0543213,
0.1955,0.0843811,
0.196,0.123291,
0.1965,0.112762,
0.197,0.0273132,
0.1975,-0.0949097,
0.198,-0.171967,
0.1985,-0.153656,
0.199,-0.0862122,
0.1995,-0.0395203,
0.2,-0.025177,
0.2005,-0.0282288,
0.201,-0.0289917,
0.2015,-0.0300598,
0.202,-0.0328064,
0.2025,-0.0331116,
0.203,-0.0285339,
0.2035,-0.0230408,
0.204,-0.0149536,
0.2045,-0.0102234,
0.205,-0.00274658,
0.2055,0.00854492,
0.206,0.0357056,
0.2065,0.0616455,
0.207,0.0645447,
0.2075,0.0520325,
0.208,0.0418091,
0.2085,0.0338745,
0.209,0.0228882,
0.2095,0.0100708,
0.21,-0.0106812,
0.2105,-0.0273132,
0.211,-0.0250244,
0.2115,-0.0219727,
0.212,-0.0204468,
0.2125,-0.0160217,
0.213,-0.00930786,
0.2135,-0.00396729,
0.214,-0.00732422,
0.2145,-0.0170898,
0.215,-0.0228882,
0.2155,-0.0193787,
0.216,-0.0151062,
0.2165,-0.00747681,
0.217,-0.00167847,
0.2175,-0.00213623,
0.218,-0.00976563,
0.2185,-0.0141907,
0.219,-0.00656128,
0.2195,0.00854492,
0.22,0.037384,
0.2205,0.0836182,
0.221,0.120697,
0.2215,0.118103,
0.222,0.101624,
0.2225,0.107574,
0.223,0.107117,
0.2235,0.0671387,
0.224,0.00549316,
0.2245,-0.0515747,
0.225,-0.0869751,
0.2255,-0.0958252,
0.226,-0.0860596,
0.2265,-0.0617981,
0.227,-0.0317383,
0.2275,-0.0141907,
0.228,-0.0088501,
0.2285,-0.00823975,
0.229,-0.0102234,
0.2295,-0.018158,
0.23,-0.0286865,
0.2305,-0.0354004,
0.231,-0.0358582,
0.2315,-0.0328064,
0.232,-0.0263977,
0.2325,-0.020752,
0.233,-0.0138855,
0.2335,-0.0115967,
0.234,-0.0088501,
0.2345,-0.00366211,
0.235,0.0114441,
0.2355,0.032196,
0.236,0.0492859,
0.2365,0.0543213,
0.237,0.0492859,
0.2375,0.0389099,
0.238,0.0273132,
0.2385,0.0177002,
0.239,0.0117493,
0.2395,0.0062561,
0.24,-0.00137329,
0.2405,-0.0119019,
0.241,-0.0140381,
0.2415,-0.00778198,
0.242,-0.00457764,
0.2425,-0.00762939,
0.243,-0.0100708,
0.2435,-0.00915527,
0.244,-0.00274658,
0.2445,0.000762939,
0.245,0.00274658,
0.2455,0.000762939,
0.246,-0.00350952,
0.2465,-0.00854492,
0.247,-0.010376,
0.2475,-0.00915527,
0.248,-0.0100708,
0.2485,-0.0105286,
0.249,-0.00915527,
0.2495,-0.00717163,
0.25,-0.0088501,
0.2505,-0.0131226,
0.251,-0.0152588,
0.2515,-0.0140381,
0.252,-0.0132751,
0.2525,-0.0117493,
0.253,-0.00808716,
0.2535,-0.00228882,
0.254,-0.000457764,
0.2545,-0.000915527,
0.255,-0.00228882,
0.2555,-0.0062561,
0.256,-0.00778198,
0.2565,-0.00946045,
0.257,-0.0117493,
0.2575,-0.01297,
0.258,-0.00900269,
0.2585,-0.00610352,
0.259,-0.00457764,
0.2595,-0.0050354,
0.26,-0.00823975,
0.2605,-0.0102234,
0.261,-0.00640869,
0.2615,-0.00671387,
0.262,-0.00900269,
0.2625,-0.0088501,
0.263,-0.00717163,
0.2635,-0.00747681,
0.264,-0.00808716,
0.2645,-0.00701904,
0.265,-0.00335693,
0.2655,0,
0.266,0,
0.2665,-0.000762939,
0.267,0.000305176,
0.2675,-0.00289917,
0.268,-0.00686646,
0.2685,-0.00762939,
0.269,-0.00976563,
0.2695,-0.0105286,
0.27,-0.0108337,
0.2705,-0.0135803,
0.271,-0.0152588,
0.2715,-0.017395,
0.272,-0.0192261,
0.2725,-0.0149536,
0.273,0.0170898,
0.2735,0.042572,
0.274,0.0343323,
0.2745,0.0119019,
0.275,0.000610352,
0.2755,0.0012207,
0.276,-0.00564575,
0.2765,-0.0138855,
0.277,-0.0157166,
0.2775,-0.0141907,
0.278,-0.0152588,
0.2785,-0.0241089,
0.279,-0.0349426,
0.2795,-0.0363159,
0.28,-0.0296021,
0.2805,-0.0144958,
0.281,-0.000915527,
0.2815,0.000610352,
0.282,-0.00457764,
0.2825,-0.00961304,
0.283,0.0115967,
0.2835,0.0578308,
0.284,0.0712585,
0.2845,0.0434875,
0.285,0.0163269,
0.2855,0.00778198,
0.286,0.00411987,
0.2865,-0.00610352,
0.287,-0.0175476,
0.2875,-0.0288391,
0.288,-0.027771,
0.2885,-0.00869751,
0.289,0.00991821,
0.2895,0.0160217,
0.29,0.020752,
0.2905,0.0273132,
0.291,0.0230408,
0.2915,0.0137329,
0.292,0.0088501,
0.2925,0.0205994,
0.293,0.0502014,
0.2935,0.0617981,
0.294,0.0411987,
0.2945,0.00289917,
0.295,-0.0405884,
0.2955,-0.0793457,
0.296,-0.0900269,
0.2965,-0.0680542,
0.297,-0.035553,
0.2975,-0.0137329,
0.298,-0.00228882,
0.2985,0.00839233,
0.299,0.0204468,
0.2995,0.0384521,
0.3,0.0531006,
0.3005,0.0582886,
0.301,0.0502014,
0.3015,0.0230408,
0.302,-0.0105286,
0.3025,-0.0387573,
0.303,-0.050354,
0.3035,-0.0514221,
0.304,-0.0634766,
0.3045,-0.0775146,
0.305,-0.0881958,
0.3055,-0.0849915,
0.306,-0.0643921,
0.3065,-0.0341797,
0.307,-0.0123596,
0.3075,-0.00335693,
0.308,-0.000915527,
0.3085,0.00106812,
0.309,0.0152588,
0.3095,0.0454712,
0.31,0.0527954,
0.3105,0.0228882,
0.311,-0.00350952,
0.3115,-0.00564575,
0.312,-0.00671387,
0.3125,-0.0134277,
0.313,-0.0111389,
0.3135,-0.00152588,
0.314,0.00534058,
0.3145,0.00823975,
0.315,0.00732422,
0.3155,0.0114441,
0.316,0.0236511,
0.3165,0.0376892,
0.317,0.0354004,
0.3175,0.0231934,
0.318,0.0151062,
0.3185,0.0135803,
0.319,0.0210571,
0.3195,0.0276184,
0.32,0.0270081,
0.3205,0.0157166,
0.321,-0.00305176,
0.3215,-0.0177002,
0.322,-0.0134277,
0.3225,0.00335693,
0.323,0.0161743,
0.3235,0.017395,
0.324,0.0134277,
0.3245,0.0115967,
0.325,0.00671387,
0.3255,0.00137329,
0.326,-0.00366211,
0.3265,-0.0114441,
0.327,-0.0187683,
0.3275,-0.0222778,
0.328,-0.0169373,
0.3285,-0.00320435,
0.329,0.0126648,
0.3295,0.0134277,
0.33,0.00350952,
0.3305,-0.00167847,
0.331,0.000915527,
0.3315,0.00442505,
0.332,0.00152588,
0.3325,-0.00305176,
0.333,-0.00396729,
0.3335,-0.00350952,
0.334,0.000915527,
0.3345,0.000305176,
0.335,-0.00350952,
0.3355,-0.0114441,
0.336,-0.0190735,
0.3365,-0.0192261,
0.337,-0.0180054,
0.3375,-0.0138855,
0.338,-0.00869751,
0.3385,-0.00961304,
0.339,-0.0144958,
0.3395,-0.0128174,
0.34,-0.00839233,
0.3405,-0.00167847,
0.341,-0.000610352,
0.3415,-0.0038147,
0.342,-0.00839233,
0.3425,-0.0100708,
0.343,-0.00900269,
0.3435,-0.00564575,
0.344,-0.00228882,
0.3445,-0.00579834,
0.345,-0.00778198,
0.3455,-0.0109863,
0.346,-0.0172424,
0.3465,-0.0228882,
0.347,-0.0218201,
0.3475,-0.014801,
0.348,-0.0105286,
0.3485,-0.0114441,
0.349,-0.0109863,
0.3495,-0.00823975,
0.35,-0.0137329,
0.3505,-0.0259399,
0.351,-0.0309753,
0.3515,-0.0204468,
0.352,-0.000305176,
0.3525,0.0172424,
0.353,0.00671387,
0.3535,-0.0138855,
0.354,-0.00976563,
0.3545,0.0291443,
0.355,0.057373,
0.3555,0.0453186,
0.356,0.0146484,
0.3565,-0.00411987,
0.357,-0.00427246,
0.3575,-0.00198364,
0.358,-0.00289917,
0.3585,-0.00335693,
0.359,-0.00320435,
0.3595,-0.00183105,
0.36,-0.000915527,
0.3605,-0.000915527,
0.361,-0.00427246,
0.3615,-0.00961304,
0.362,-0.0108337,
0.3625,-0.0109863,
0.363,-0.0109863,
0.3635,-0.0106812,
0.364,-0.0105286,
0.3645,-0.0117493,
0.365,-0.00976563,
0.3655,-0.00701904,
0.366,0.000152588,
0.3665,0.0088501,
0.367,0.0189209,
0.3675,0.0270081,
0.368,0.0254822,
0.3685,0.0135803,
0.369,0.00183105,
0.3695,-0.0111389,
0.37,-0.0175476,
0.3705,-0.00946045,
0.371,0.00259399,
0.3715,0.0088501,
0.372,0.00961304,
0.3725,0.00915527,
0.373,0.0151062,
0.3735,0.0262451,
0.374,0.0314331,
0.3745,0.0256348,
0.375,0.0152588,
0.3755,0.00869751,
0.376,0.00335693,
0.3765,-0.00259399,
0.377,-0.00961304,
0.3775,-0.0109863,
0.378,-0.0112915,
0.3785,-0.0152588,
0.379,-0.0216675,
0.3795,-0.0273132,
0.38,-0.030365,
0.3805,-0.0358582,
0.381,-0.0344849,
0.3815,-0.0164795,
0.382,0.0108337,
0.3825,0.0241089,
0.383,0.0195313,
0.3835,0.0164795,
0.384,0.0177002,
0.3845,0.018158,
0.385,0.0141907,
0.3855,0.00900269,
0.386,0.00534058,
0.3865,0.00259399,
0.387,0.000457764,
0.3875,-0.00106812,
0.388,-0.00244141,
0.3885,-0.00289917,
0.389,-0.00366211,
0.3895,-0.00335693,
0.39,-0.00183105,
0.3905,0.000305176,
0.391,-0.00137329,
0.3915,-0.00457764,
0.392,-0.00595093,
0.3925,-0.00564575,
0.393,-0.00564575,
0.3935,-0.00595093,
0.394,-0.00595093,
0.3945,-0.00564575,
0.395,-0.00396729,
0.3955,0.0012207,
0.396,0.00610352,
0.3965,0.00549316,
0.397,0.00564575,
0.3975,0.00778198,
0.398,0.00701904,
0.3985,0.00335693,
0.399,0.000457764,
0.3995,-0.00244141,
0.4,-0.00488281,
0.4005,-0.0100708,
0.401,-0.0177002,
0.4015,-0.0299072,
0.402,-0.0415039,
0.4025,-0.0404358,
0.403,-0.0326538,
0.4035,-0.0254822,
0.404,-0.0175476,
0.4045,-0.0108337,
0.405,-0.00534058,
0.4055,-0.0038147,
0.406,-0.00656128,
0.4065,-0.0088501,
0.407,-0.00762939,
0.4075,-0.00640869,
0.408,-0.00778198,
0.4085,-0.00915527,
0.409,-0.010376,
0.4095,-0.00915527,
0.41,-0.00854492,
0.4105,-0.00991821,
0.411,-0.0114441,
0.4115,-0.00946045,
0.412,0,
0.4125,0.00976563,
0.413,0.0143433,
0.4135,0.0131226,
0.414,0.0115967,
0.4145,0.0128174,
0.415,0.010376,
0.4155,0.0062561,
0.416,0.00137329,
0.4165,-0.00213623,
0.417,-0.00778198,
0.4175,-0.0167847,
0.418,-0.0140381,
0.4185,0.000152588,
0.419,0.0204468,
0.4195,0.0328064,
0.42,0.0315857,
0.4205,0.0230408,
0.421,0.0163269,
0.4215,0.00778198,
0.422,-0.00930786,
0.4225,-0.0369263,
0.423,-0.0532532,
0.4235,-0.0508118,
0.424,-0.0375366,
0.4245,-0.0196838,
0.425,-0.0111389,
0.4255,-0.00961304,
0.426,-0.00289917,
0.4265,0.0137329,
0.427,0.0227356,
0.4275,0.0137329,
0.428,-0.00198364,
0.4285,-0.0109863,
0.429,-0.0140381,
0.4295,-0.00961304,
0.43,-0.00228882,
0.4305,-0.000762939,
0.431,-0.00488281,
0.4315,0.000762939,
0.432,0.0236511,
0.4325,0.0392151,
0.433,0.0354004,
0.4335,0.0218201,
0.434,0.0152588,
0.4345,0.0135803,
0.435,0.0117493,
0.4355,0.00732422,
0.436,0.00595093,
0.4365,0.0062561,
0.437,0.00335693,
0.4375,0.000305176,
0.438,-0.00350952,
0.4385,-0.00534058,
0.439,-0.00579834,
0.4395,-0.00762939,
0.44,-0.0109863,
0.4405,-0.0114441,
0.441,-0.0108337,
0.4415,-0.00946045,
0.442,-0.0131226,
0.4425,-0.0192261,
0.443,-0.0138855,
0.4435,0.0106812,
0.444,0.0263977,
0.4445,0.0161743,
0.445,0.00747681,
0.4455,0.00869751,
0.446,0.0117493,
0.4465,0.00427246,
0.447,-0.00564575,
0.4475,-0.00595093,
0.448,0.00656128,
0.4485,0.0300598,
0.449,0.050354,
0.4495,0.0595093,
0.45,0.0559998,
0.4505,0.0471497,
0.451,0.0376892,
0.4515,0.0296021,
0.452,0.0205994,
0.4525,0.0128174,
0.453,0.00808716,
0.4535,0.00930786,
0.454,0.00579834,
0.4545,-0.00900269,
0.455,-0.0463867,
0.4555,-0.0993347,
0.456,-0.127716,
0.4565,-0.116882,
0.457,-0.0892639,
0.4575,-0.0663757,
0.458,-0.0463867,
0.4585,-0.0274658,
0.459,-0.0180054,
0.4595,-0.0175476,
0.46,-0.0180054,
0.4605,-0.0193787,
0.461,-0.0161743,
0.4615,-0.0119019,
0.462,-0.00823975,
0.4625,-0.00793457,
0.463,-0.00946045,
0.4635,-0.0117493,
0.464,-0.0125122,
0.4645,-0.00854492,
0.465,-0.00213623,
0.4655,0.0012207,
0.466,0.00305176,
0.4665,0.00549316,
0.467,0.00793457,
0.4675,0.0119019,
0.468,0.0177002,
0.4685,0.0234985,
0.469,0.0282288,
0.4695,0.0238037,
0.47,0.0100708,
0.4705,-0.00259399,
0.471,-0.00244141,
0.4715,0.00320435,
0.472,0.00854492,
0.4725,0.0149536,
0.473,0.0135803,
0.4735,0.00762939,
0.474,0.00274658,
0.4745,-0.00732422,
0.475,-0.0160217,
0.4755,-0.0138855,
0.476,-0.00961304,
0.4765,-0.0263977,
0.477,-0.0497437,
0.4775,-0.0598145,
0.478,-0.0553894,
0.4785,-0.0398254,
0.479,-0.0250244,
0.4795,-0.0254822,
0.48,-0.0389099,
0.4805,-0.0505066,
0.481,-0.03479,
0.4815,0.0294495,
0.482,0.0912476,
0.4825,0.105591,
0.483,0.0828552,
0.4835,0.0486755,
0.484,0.0282288,
0.4845,0.0189209,
0.485,0.0108337,
0.4855,0.00732422,
0.486,0.00793457,
0.4865,0.00991821,
0.487,0.00900269,
0.4875,0.00305176,
0.488,-0.00335693,
0.4885,-0.00869751,
0.489,-0.0161743,
0.4895,-0.0236511,
0.49,-0.0241089,
0.4905,-0.0218201,
0.491,-0.0219727,
0.4915,-0.018158,
0.492,-0.00976563,
0.4925,0,
0.493,0.0126648,
0.4935,0.0230408,
0.494,0.0276184,
0.4945,0.0282288,
0.495,0.0271606,
0.4955,0.0276184,
0.496,0.0338745,
0.4965,0.035553,
0.497,0.0296021,
0.4975,0.0224304,
0.498,0.0134277,
0.4985,0.00549316,
0.499,0.00244141,
0.4995,0.00488281,
0.5,0.00732422,
0.5005,0.00534058,
0.501,-0.000305176,
0.5015,-0.00411987,
0.502,-0.00396729,
0.5025,-0.00213623,
0.503,-0.00289917,
0.5035,-0.0062561,
0.504,-0.0123596,
0.5045,-0.0163269,
0.505,-0.0177002,
0.5055,-0.0195313,
0.506,-0.0216675,
0.5065,-0.0242615,
0.507,-0.0268555,
0.5075,-0.0263977,
0.508,-0.0198364,
0.5085,0.00534058,
0.509,0.0213623,
0.5095,0.0125122,
0.51,0.000457764,
0.5105,-0.00228882,
0.511,-0.00595093,
0.5115,-0.0106812,
0.512,-0.0126648,
0.5125,-0.0119019,
0.513,-0.0140381,
0.5135,-0.0202942,
0.514,-0.0297546,
0.5145,-0.0340271,
0.515,-0.0334167,
0.5155,-0.0328064,
0.516,-0.0325012,
0.5165,-0.0267029,
0.517,-0.0172424,
0.5175,-0.0062561,
0.518,0.00442505,
0.5185,0.0189209,
0.519,0.0350952,
0.5195,0.0439453,
0.52,0.0457764,
0.5205,0.0469971,
0.521,0.04776,
0.5215,0.0444031,
0.522,0.0341797,
0.5225,0.019989,
0.523,-0.000915527,
0.5235,-0.0300598,
0.524,-0.0550842,
0.5245,-0.0624084,
0.525,-0.0492859,
0.5255,-0.0314331,
0.526,-0.0170898,
0.5265,-0.0105286,
0.527,-0.0100708,
0.5275,-0.0134277,
0.528,-0.0149536,
0.5285,-0.0158691,
0.529,-0.0140381,
0.5295,-0.0151062,
0.53,-0.0201416,
0.5305,-0.0254822,
0.531,-0.0286865,
0.5315,-0.0268555,
0.532,-0.0198364,
0.5325,-0.0135803,
0.533,-0.0189209,
0.5335,-0.0257874,
0.534,-0.0230408,
0.5345,-0.00396729,
0.535,0.0221252,
0.5355,0.0363159,
0.536,0.0439453,
0.5365,0.0372314,
0.537,0.00564575,
0.5375,-0.0160217,
0.538,0.015564,
0.5385,0.0639343,
0.539,0.0619507,
0.5395,0.0317383,
0.54,0.0134277,
0.5405,0.0100708,
0.541,0.00915527,
0.5415,0.00305176,
0.542,0.00167847,
0.5425,0.00274658,
0.543,0.000152588,
0.5435,-0.0109863,
0.544,-0.0177002,
0.5445,-0.0158691,
0.545,-0.0196838,
0.5455,-0.0204468,
0.546,-0.0192261,
0.5465,-0.0167847,
0.547,-0.0170898,
0.5475,-0.0164795,
0.548,-0.015564,
0.5485,-0.0157166,
0.549,-0.0154114,
0.5495,-0.0111389,
0.55,-0.0115967,
0.5505,-0.0158691,
0.551,-0.0189209,
0.5515,-0.0172424,
0.552,-0.0112915,
0.5525,-0.00259399,
0.553,0.00518799,
0.5535,0.00732422,
0.554,0.0117493,
0.5545,0.0256348,
0.555,0.0402832,
0.5555,0.0492859,
0.556,0.0483704,
0.5565,0.0393677,
0.557,0.0254822,
0.5575,0.0152588,
0.558,0.00946045,
0.5585,-0.00411987,
0.559,-0.0338745,
0.5595,-0.0666809,
0.56,-0.0752258,
0.5605,-0.0541687,
0.561,-0.0265503,
0.5615,-0.00793457,
0.562,0.00564575,
0.5625,0.0163269,
0.563,0.0236511,
0.5635,0.0283813,
0.564,0.0297546,
0.5645,0.0234985,
0.565,0.0184631,
0.5655,0.0192261,
0.566,0.0192261,
0.5665,0.0183105,
0.567,0.0111389,
0.5675,0.00442505,
0.568,0.00671387,
0.5685,0.0106812,
0.569,0.00869751,
0.5695,0.00213623,
0.57,-0.00350952,
0.5705,-0.00839233,
0.571,-0.0135803,
0.5715,-0.0167847,
0.572,-0.0132751,
0.5725,-0.0117493,
0.573,-0.0187683,
0.5735,-0.035553,
0.574,-0.0471497,
0.5745,-0.0439453,
0.575,-0.0398254,
0.5755,-0.0376892,
0.576,-0.0320435,
0.5765,-0.00717163,
0.577,0.0230408,
0.5775,0.0231934,
0.578,-0.00228882,
0.5785,-0.020752,
0.579,-0.0282288,
0.5795,-0.030365,
0.58,-0.0349426,
0.5805,-0.0382996,
0.581,-0.037384,
0.5815,-0.0460815,
0.582,-0.0556946,
0.5825,-0.0395203,
0.583,0.0102234,
0.5835,0.0553894,
0.584,0.0636292,
0.5845,0.0466919,
0.585,0.0271606,
0.5855,0.0141907,
0.586,0.00198364,
0.5865,-0.00854492,
0.587,-0.0120544,
0.5875,-0.00869751,
0.588,-0.00640869,
0.5885,-0.00411987,
0.589,-0.00198364,
0.5895,0.00106812,
0.59,0.0102234,
0.5905,0.0196838,
0.591,0.0257874,
0.5915,0.0311279,
0.592,0.0343323,
0.5925,0.0337219,
0.593,0.0286865,
0.5935,0.0201416,
0.594,0.00900269,
0.5945,-0.00244141,
0.595,-0.00747681,
0.5955,-0.00976563,
0.596,-0.0135803,
0.5965,-0.0163269,
0.597,-0.0149536,
0.5975,-0.0105286,
0.598,-0.0088501,
0.5985,-0.00823975,
0.599,-0.00991821,
0.5995,-0.0117493,
0.6,-0.00915527,
0.6005,0.00228882,
0.601,0.0180054,
0.6015,0.0276184,
0.602,0.0312805,
0.6025,0.0268555,
0.603,0.0154114,
0.6035,0.00411987,
0.604,-0.00457764,
0.6045,-0.0138855,
0.605,-0.0242615,
0.6055,-0.0256348,
0.606,-0.0195313,
0.6065,-0.0109863,
0.607,0.00152588,
0.6075,0.0100708,
0.608,0.00335693,
0.6085,-0.0134277,
0.609,-0.0231934,
0.6095,-0.0183105,
0.61,-0.0112915,
0.6105,-0.00900269,
0.611,-0.0088501,
0.6115,-0.0158691,
0.612,-0.0253296,
0.6125,-0.0308228,
0.613,-0.0325012,
0.6135,-0.032959,
0.614,-0.0343323,
0.6145,-0.0363159,
0.615,-0.0358582,
0.6155,-0.0369263,
0.616,-0.0372314,
0.6165,-0.0296021,
0.617,-0.0125122,
0.6175,0.00427246,
0.618,0.017395,
0.6185,0.0228882,
0.619,0.0323486,
0.6195,0.0384521,
0.62,0.0341797,
0.6205,0.0192261,
0.621,0.00411987,
0.6215,-0.0050354,
0.622,-0.00473022,
0.6225,-0.000305176,
0.623,0.000915527,
0.6235,-0.00183105,
0.624,-0.00717163,
0.6245,-0.00656128,
0.625,0.00167847,
0.6255,0.0114441,
0.626,0.0183105,
0.6265,0.0227356,
0.627,0.0309753,
0.6275,0.0378418,
0.628,0.0396729,
0.6285,0.0294495,
0.629,0.0143433,
0.6295,0.00335693,
0.63,-0.00411987,
0.6305,-0.0202942,
0.631,-0.0306702,
0.6315,-0.0210571,
0.632,-0.0109863,
0.6325,-0.01297,
0.633,-0.0236511,
0.6335,-0.0270081,
0.634,-0.0184631,
0.6345,-0.00762939,
0.635,0.0131226,
0.6355,0.0398254,
0.636,0.0601196,
0.6365,0.065918,
0.637,0.0564575,
0.6375,0.0393677,
0.638,0.0221252,
0.6385,0.0141907,
0.639,0.0146484,
0.6395,0.0157166,
0.64,0.0132751,
0.6405,0.014801,
0.641,0.017395,
0.6415,0.0219727,
0.642,0.0305176,
0.6425,0.0361633,
0.643,0.0358582,
0.6435,0.025177,
0.644,0.00595093,
0.6445,-0.017395,
0.645,-0.0427246,
0.6455,-0.0631714,
0.646,-0.0776672,
0.6465,-0.0793457,
0.647,-0.0668335,
0.6475,-0.0537109,
0.648,-0.045166,
0.6485,-0.0361633,
0.649,-0.025177,
0.6495,-0.00808716,
0.65,0.0193787,
0.6505,0.04776,
0.651,0.0558472,
0.6515,0.0395203,
0.652,0.0141907,
0.6525,-0.00640869,
0.653,-0.015564,
0.6535,-0.0161743,
0.654,-0.0131226,
0.6545,-0.0144958,
0.655,-0.0177002,
0.6555,-0.0167847,
0.656,-0.0141907,
0.6565,-0.0088501,
0.657,-0.00671387,
0.6575,-0.0119019,
0.658,-0.0160217,
0.6585,-0.0178528,
0.659,-0.0178528,
0.6595,-0.00808716,
0.66,0.010376,
0.6605,0.0184631,
0.661,0.0128174,
0.6615,-0.00106812,
0.662,-0.0143433,
0.6625,-0.0273132,
0.663,-0.0372314,
0.6635,-0.038147,
0.664,-0.0259399,
0.6645,-0.0137329,
0.665,-0.0117493,
0.6655,-0.00961304,
0.666,-0.00320435,
0.6665,-0.00686646,
0.667,-0.0175476,
0.6675,-0.0230408,
0.668,-0.0265503,
0.6685,-0.0286865,
0.669,-0.0288391,
0.6695,-0.0326538,
0.67,-0.0376892,
0.6705,-0.0389099,
0.671,-0.0320435,
0.6715,-0.0198364,
0.672,-0.0102234,
0.6725,-0.0112915,
0.673,-0.0160217,
0.6735,-0.00701904,
0.674,0.0180054,
0.6745,0.0393677,
0.675,0.0387573,
0.6755,0.0250244,
0.676,0.0198364,
0.6765,0.0245667,
0.677,0.0276184,
0.6775,0.0268555,
0.678,0.025177,
0.6785,0.0265503,
0.679,0.0279236,
0.6795,0.0265503,
0.68,0.0262451,
0.6805,0.0257874,
0.681,0.0215149,
0.6815,0.0193787,
0.682,0.0263977,
0.6825,0.0338745,
0.683,0.0326538,
0.6835,0.0248718,
0.684,0.0114441,
0.6845,0.0012207,
0.685,-0.0012207,
0.6855,0.000457764,
0.686,-0.00335693,
0.6865,-0.0115967,
0.687,-0.020752,
0.6875,-0.0279236,
0.688,-0.0312805,
0.6885,-0.0299072,
0.689,-0.032196,
0.6895,-0.0462341,
0.69,-0.057373,
0.6905,-0.0593567,
0.691,-0.0579834,
0.6915,-0.0537109,
0.692,-0.0453186,
0.6925,-0.0398254,
0.693,-0.0390625,
0.6935,-0.0344849,
0.694,-0.0135803,
0.6945,0.0202942,
0.695,0.0488281,
0.6955,0.0552368,
0.696,0.0509644,
0.6965,0.0463867,
0.697,0.0559998,
0.6975,0.0784302,
0.698,0.0819397,
0.6985,0.0610352,
0.699,0.0338745,
0.6995,0.01297,
0.7,0.000915527,
0.7005,-0.00289917,
0.701,-0.00808716,
0.7015,-0.0131226,
0.702,-0.00976563,
0.7025,0.00564575,
0.703,0.0274658,
0.7035,0.0474548,
0.704,0.050354,
0.7045,0.032196,
0.705,0.0132751,
0.7055,0.0038147,
0.706,-0.00442505,
0.7065,-0.0134277,
0.707,-0.0154114,
0.7075,-0.0141907,
0.708,-0.0115967,
0.7085,-0.00656128,
0.709,-0.010376,
0.7095,-0.0234985,
0.71,-0.0361633,
0.7105,-0.03479,
0.711,-0.0192261,
0.7115,0.000152588,
0.712,0.0190735,
0.7125,0.0262451,
0.713,0.0254822,
0.7135,0.0297546,
0.714,0.0300598,
0.7145,0.0126648,
0.715,-0.00396729,
0.7155,-0.0149536,
0.716,-0.0349426,
0.7165,-0.0640869,
0.717,-0.0900269,
0.7175,-0.0994873,
0.718,-0.108032,
0.7185,-0.120544,
0.719,-0.104828,
0.7195,-0.0672913,
0.72,-0.0344849,
0.7205,-0.0105286,
0.721,0.00350952,
0.7215,0.00930786,
0.722,0.014801,
0.7225,0.0216675,
0.723,0.0245667,
0.7235,0.017395,
0.724,0.0160217,
0.7245,0.0250244,
0.725,0.0308228,
0.7255,0.0285339,
0.726,0.0265503,
0.7265,0.0254822,
0.727,0.0183105,
0.7275,0.00793457,
0.728,-0.00823975,
0.7285,-0.03479,
0.729,-0.0491333,
0.7295,-0.0378418,
0.73,-0.0276184,
0.7305,-0.032959,
0.731,-0.0437927,
0.7315,-0.0494385,
0.732,-0.0593567,
0.7325,-0.0750732,
0.733,-0.0796509,
0.7335,-0.059967,
0.734,-0.0318909,
0.7345,-0.0190735,
0.735,-0.0135803,
0.7355,0.00106812,
0.736,0.0190735,
0.7365,0.0265503,
0.737,0.0273132,
0.7375,0.037384,
0.738,0.0588989,
0.7385,0.0799561,
0.739,0.0798035,
0.7395,0.065155,
0.74,0.0668335,
0.7405,0.0872803,
0.741,0.115204,
0.7415,0.143433,
0.742,0.153656,
0.7425,0.131836,
0.743,0.106506,
0.7435,0.0765991,
0.744,0.019989,
0.7445,-0.0552368,
0.745,-0.103455,
0.7455,-0.10498,
0.746,-0.0901794,
0.7465,-0.0827026,
0.747,-0.0740051,
0.7475,-0.0682068,
0.748,-0.0592041,
0.7485,-0.0514221,
0.749,-0.0601196,
0.7495,-0.0697327,
0.75,-0.0512695,
0.7505,-0.0273132,
0.751,-0.0195313,
0.7515,-0.0219727,
0.752,-0.0184631,
0.7525,-0.00823975,
0.753,0.000762939,
0.7535,-0.00656128,
0.754,-0.0157166,
0.7545,-0.00961304,
0.755,0.00686646,
0.7555,0.0205994,
0.756,0.0265503,
0.7565,0.027771,
0.757,0.0190735,
0.7575,0.0106812,
0.758,0.00671387,
0.7585,0.0012207,
0.759,0.00762939,
0.7595,0.0308228,
0.76,0.065155,
0.7605,0.0749207,
0.761,0.0494385,
0.7615,0.0146484,
0.762,-0.00701904,
0.7625,-0.0102234,
0.763,-0.0128174,
0.7635,-0.032196,
0.764,-0.038147,
0.7645,-0.0416565,
0.765,-0.0552368,
0.7655,-0.0802612,
0.766,-0.0965881,
0.7665,-0.0697327,
0.767,-0.0169373,
0.7675,-0.00106812,
0.768,-0.0234985,
0.7685,-0.0163269,
0.769,0.0332642,
0.7695,0.0823975,
0.77,0.0920105,
0.7705,0.0701904,
0.771,0.0346375,
0.7715,-0.000610352,
0.772,-0.00747681,
0.7725,0.0250244,
0.773,0.059967,
0.7735,0.0772095,
0.774,0.0831604,
0.7745,0.0862122,
0.775,0.0695801,
0.7755,0.0323486,
0.776,0.00366211,
0.7765,-0.00457764,
0.777,-0.00289917,
0.7775,-0.00106812,
0.778,-0.0210571,
0.7785,-0.0773621,
0.779,-0.135193,
0.7795,-0.140076,
0.78,-0.0840759,
0.7805,-0.0189209,
0.781,0.0062561,
0.7815,0.00686646,
0.782,0.00137329,
0.7825,-0.00823975,
0.783,-0.0161743,
0.7835,-0.014801,
0.784,-0.00701904,
0.7845,0.00869751,
0.785,0.0326538,
0.7855,0.0482178,
0.786,0.0456238,
0.7865,0.0268555,
0.787,0.00427246,
0.7875,-0.022583,
0.788,-0.045929,
0.7885,-0.0450134,
0.789,-0.0254822,
0.7895,-0.00946045,
0.79,-0.00137329,
0.7905,0.0050354,
0.791,0.00457764,
0.7915,-0.00488281,
0.792,-0.0166321,
0.7925,-0.0233459,
0.793,-0.0233459,
0.7935,-0.0209045,
0.794,-0.00961304,
0.7945,0.00610352,
0.795,0.0198364,
0.7955,0.0250244,
0.796,0.0259399,
0.7965,0.0238037,
0.797,0.0157166,
0.7975,0.00473022,
0.798,-0.00152588,
0.7985,-0.00991821,
0.799,-0.0250244,
0.7995,-0.0411987,
0.8,-0.0509644,
0.8005,-0.0488281,
0.801,-0.0349426,
0.8015,-0.00732422,
0.802,0.0262451,
0.8025,0.045166,
0.803,0.0436401,
0.8035,0.0337219,
0.804,0.0250244,
0.8045,0.0172424,
0.805,0.0163269,
0.8055,0.0193787,
0.806,0.0248718,
0.8065,0.0228882,
0.807,0.0157166,
0.8075,0.0141907,
0.808,0.0241089,
0.8085,0.030365,
0.809,0.0248718,
0.8095,0.00946045,
0.81,-0.0119019,
0.8105,-0.0286865,
0.811,-0.040741,
0.8115,-0.0595093,
0.812,-0.0694275,
0.8125,-0.0593567,
0.813,-0.0360107,
0.8135,-0.0219727,
0.814,-0.0131226,
0.8145,0.00228882,
0.815,0.0125122,
0.8155,0.017395,
0.816,0.0170898,
0.8165,0.0135803,
0.817,0.0126648,
0.8175,0.00579834,
0.818,-0.00167847,
0.8185,-0.00549316,
0.819,-0.0102234,
0.8195,-0.0151062,
0.82,-0.00839233,
0.8205,0.00427246,
0.821,0.00793457,
0.8215,-0.00228882,
0.822,-0.0239563,
0.8225,-0.045929,
0.823,-0.0483704,
0.8235,-0.03479,
0.824,-0.0294495,
0.8245,-0.0367737,
0.825,-0.0376892,
0.8255,-0.032196,
0.826,-0.00854492,
0.8265,0.032196,
0.827,0.0723267,
0.8275,0.0907898,
0.828,0.0869751,
0.8285,0.0845337,
0.829,0.0820923,
0.8295,0.0694275,
0.83,0.0547791,
0.8305,0.0428772,
0.831,0.0302124,
0.8315,0.000610352,
0.832,-0.0561523,
0.8325,-0.106812,
0.833,-0.101624,
0.8335,-0.0669861,
0.834,-0.0415039,
0.8345,-0.0216675,
0.835,-0.00595093,
0.8355,-0.00595093,
0.836,-0.0177002,
0.8365,-0.017395,
0.837,-0.00579834,
0.8375,0.000610352,
0.838,-0.0115967,
0.8385,-0.0263977,
0.839,-0.0184631,
0.8395,-0.000610352,
0.84,0.0105286,
0.8405,0.0180054,
0.841,0.0299072,
0.8415,0.0447083,
0.842,0.0506592,
0.8425,0.0401306,
0.843,0.0161743,
0.8435,-0.00686646,
0.844,-0.0141907,
0.8445,-0.00579834,
0.845,0.0149536,
0.8455,0.0534058,
0.846,0.0793457,
0.8465,0.0627136,
0.847,0.0231934,
0.8475,-0.00656128,
0.848,-0.0192261,
0.8485,-0.0257874,
0.849,-0.0375366,
0.8495,-0.0511169,
0.85,-0.0512695,
0.8505,-0.0370789,
0.851,-0.0299072,
0.8515,-0.0306702,
0.852,-0.0314331,
0.8525,-0.0430298,
0.853,-0.0619507,
0.8535,-0.0721741,
0.854,-0.0717163,
0.8545,-0.0640869,
0.855,-0.0462341,
0.8555,-0.0361633,
0.856,-0.040741,
0.8565,-0.0430298,
0.857,-0.0265503,
0.8575,0.0126648,
0.858,0.0570679,
0.8585,0.0762939,
0.859,0.0720215,
0.8595,0.0779724,
0.86,0.0793457,
0.8605,0.0743103,
0.861,0.0814819,
0.8615,0.0959778,
0.862,0.106049,
0.8625,0.0941467,
0.863,0.0689697,
0.8635,0.0717163,
0.864,0.0990295,
0.8645,0.13504,
0.865,0.160065,
0.8655,0.145874,
0.866,0.0944519,
0.8665,0.0302124,
0.867,-0.0485229,
0.8675,-0.166473,
0.868,-0.281525,
0.8685,-0.326538,
0.869,-0.311737,
0.8695,-0.269623,
0.87,-0.24231,
0.8705,-0.252686,
0.871,-0.249176,
0.8715,-0.206604,
0.872,-0.151978,
0.8725,-0.111237,
0.873,-0.0744629,
0.8735,-0.0352478,
0.874,-0.0177002,
0.8745,-0.00854492,
0.875,0.0234985,
0.8755,0.0770569,
0.876,0.104218,
0.8765,0.0921631,
0.877,0.0886536,
0.8775,0.117645,
0.878,0.147247,
0.8785,0.172119,
0.879,0.214539,
0.8795,0.259552,
0.88,0.25116,
0.8805,0.151672,
0.881,0.0230408,
0.8815,-0.0418091,
0.882,-0.0434875,
0.8825,-0.0364685,
0.883,-0.03479,
0.8835,-0.0311279,
0.884,-0.0183105,
0.8845,-0.000457764,
0.885,0.0265503,
0.8855,0.0733948,
0.886,0.111237,
0.8865,0.115204,
0.887,0.0846863,
0.8875,0.0404358,
0.888,0.00411987,
0.8885,-0.0219727,
0.889,-0.0366211,
0.8895,-0.0410461,
0.89,-0.0506592,
0.8905,-0.0582886,
0.891,-0.0785828,
0.8915,-0.137024,
0.892,-0.220032,
0.8925,-0.248413,
0.893,-0.193787,
0.8935,-0.123749,
0.894,-0.0869751,
0.8945,-0.0674438,
0.895,-0.0387573,
0.8955,0.00137329,
0.896,0.0305176,
0.8965,0.0372314,
0.897,0.027771,
0.8975,0.0160217,
0.898,-0.00106812,
0.8985,-0.0350952,
0.899,-0.0746155,
0.8995,-0.100403,
0.9,-0.105438,
0.9005,-0.0863647,
0.901,-0.0418091,
0.9015,0.00473022,
0.902,0.0389099,
0.9025,0.0547791,
0.903,0.058136,
0.9035,0.0604248,
0.904,0.0619507,
0.9045,0.0595093,
0.905,0.0630188,
0.9055,0.0592041,
0.906,0.0350952,
0.9065,0.0128174,
0.907,0.014801,
0.9075,0.0282288,
0.908,0.0395203,
0.9085,0.0543213,
0.909,0.0648499,
0.9095,0.0709534,
0.91,0.0775146,
0.9105,0.0775146,
0.911,0.067749,
0.9115,0.0575256,
0.912,0.0497437,
0.9125,0.0402832,
0.913,0.032196,
0.9135,0.0276184,
0.914,0.0213623,
0.9145,0.0131226,
0.915,0.0111389,
0.9155,0.0111389,
0.916,0.0125122,
0.9165,0.0126648,
0.917,0.0177002,
0.9175,0.0250244,
0.918,0.0308228,
0.9185,0.0328064,
0.919,0.0335693,
0.9195,0.0332642,
0.92,0.0286865,
0.9205,0.0187683,
0.921,0.00686646,
0.9215,-0.00350952,
0.922,-0.0108337,
0.9225,-0.020752,
0.923,-0.0396729,
0.9235,-0.0566101,
0.924,-0.0544739,
0.9245,-0.0297546,
0.925,-0.000762939,
0.9255,0.0108337,
0.926,0.00350952,
0.9265,-0.0050354,
0.927,-0.0109863,
0.9275,-0.0192261,
0.928,-0.0285339,
0.9285,-0.0382996,
0.929,-0.0495911,
0.9295,-0.06073,
0.93,-0.063324,
0.9305,-0.0485229,
0.931,-0.0236511,
0.9315,-0.00396729,
0.932,0.00411987,
0.9325,0.0108337,
0.933,0.0132751,
0.9335,0.0140381,
0.934,0.0151062,
0.9345,0.0170898,
0.935,0.0109863,
0.9355,0.00289917,
0.936,-0.00167847,
0.9365,-0.00167847,
0.937,0.00213623,
0.9375,0.0038147,
0.938,0.00854492,
0.9385,0.0140381,
0.939,0.0184631,
0.9395,0.0187683,
0.94,0.00976563,
0.9405,0.000762939,
0.941,-0.00396729,
0.9415,0.00534058,
0.942,0.0384521,
0.9425,0.0688171,
0.943,0.0640869,
0.9435,0.0372314,
0.944,0.0132751,
0.9445,-0.0292969,
0.945,-0.113678,
0.9455,-0.180511,
0.946,-0.158234,
0.9465,-0.0917053,
0.947,-0.0506592,
0.9475,-0.0460815,
0.948,-0.0500488,
0.9485,-0.0497437,
0.949,-0.0421143,
0.9495,-0.0335693,
0.95,-0.0224304,
0.9505,-0.0308228,
0.951,-0.0463867,
0.9515,-0.0543213,
0.952,-0.0523376,
0.9525,-0.04776,
0.953,-0.0283813,
0.9535,0.00869751,
0.954,0.0559998,
0.9545,0.0965881,
0.955,0.123444,
0.9555,0.146027,
0.956,0.151062,
0.9565,0.12619,
0.957,0.0819397,
0.9575,0.0437927,
0.958,0.0404358,
0.9585,0.0650024,
0.959,0.0909424,
0.9595,0.093689,
0.96,0.0793457,
0.9605,0.0773621,
0.961,0.0772095,
0.9615,0.0567627,
0.962,0.0169373,
0.9625,-0.0274658,
0.963,-0.0691223,
0.9635,-0.0854492,
0.964,-0.0679016,
0.9645,-0.0518799,
0.965,-0.0454712,
0.9655,-0.0430298,
0.966,-0.0437927,
0.9665,-0.0654602,
0.967,-0.088501,
0.9675,-0.0869751,
0.968,-0.0622559,
0.9685,-0.0398254,
0.969,-0.0276184,
0.9695,-0.0257874,
0.97,-0.0378418,
0.9705,-0.0567627,
0.971,-0.042572,
0.9715,0.00686646,
0.972,0.0648499,
0.9725,0.0918579,
0.973,0.0738525,
0.9735,0.0457764,
0.974,0.0386047,
0.9745,0.0270081,
0.975,-0.0154114,
0.9755,-0.0570679,
0.976,-0.0642395,
0.9765,-0.0621033,
0.977,-0.0691223,
0.9775,-0.0735474,
0.978,-0.057373,
0.9785,-0.032196,
0.979,-0.0276184,
0.9795,-0.0466919,
0.98,-0.0820923,
0.9805,-0.0878906,
0.981,-0.0369263,
0.9815,0.0292969,
0.982,0.065155,
0.9825,0.0747681,
0.983,0.0868225,
0.9835,0.118866,
0.984,0.138092,
0.9845,0.131683,
0.985,0.136414,
0.9855,0.173492,
0.986,0.198822,
0.9865,0.170135,
0.987,0.1091,
0.9875,0.0300598,
0.988,-0.063324,
0.9885,-0.158691,
0.989,-0.215149,
0.9895,-0.208893,
0.99,-0.167236,
0.9905,-0.136719,
0.991,-0.119171,
0.9915,-0.0978088,
0.992,-0.0863647,
0.9925,-0.0920105,
0.993,-0.109558,
0.9935,-0.135651,
0.994,-0.139313,
0.9945,-0.10849,
0.995,-0.0680542,
0.9955,-0.0508118,
0.996,-0.0479126,
0.9965,-0.0317383,
0.997,-0.00350952,
0.9975,0.0210571,
0.998,0.0352478,
0.9985,0.0360107,
0.999,0.0221252,
0.9995,0.00869751,
1,0.0109863,
1.0005,0.0268555,
1.001,0.0439453,
1.0015,0.0523376,
1.002,0.0511169,
1.0025,0.0335693,
1.003,0.0134277,
1.0035,-0.00228882,
1.004,-0.0154114,
1.0045,-0.0288391,
1.005,-0.0354004,
1.0055,-0.0358582,
1.006,-0.0279236,
1.0065,-0.0254822,
1.007,-0.025177,
1.0075,-0.0218201,
1.008,-0.0135803,
1.0085,0.01297,
1.009,0.0585938,
1.0095,0.106049,
1.01,0.129547,
1.0105,0.121155,
1.011,0.0914001,
1.0115,0.050354,
1.012,0.0106812,
1.0125,-0.0134277,
1.013,-0.0135803,
1.0135,0.00350952,
1.014,0.0215149,
1.0145,0.0256348,
1.015,0.0120544,
1.0155,-0.00762939,
1.016,-0.0192261,
1.0165,-0.0241089,
1.017,-0.0260925,
1.0175,-0.0170898,
1.018,0.00534058,
1.0185,0.0352478,
1.019,0.0556946,
1.0195,0.0518799,
1.02,0.0531006,
1.0205,0.0567627,
1.021,-0.00350952,
1.0215,-0.0965881,
1.022,-0.122833,
1.0225,-0.0747681,
1.023,-0.0160217,
1.0235,0,
1.024,-0.0180054,
1.0245,-0.0396729,
1.025,-0.0292969,
1.0255,0.0210571,
1.026,0.0906372,
1.0265,0.138702,
1.027,0.130463,
1.0275,0.0799561,
1.028,0.0215149,
1.0285,-0.0466919,
1.029,-0.0967407,
1.0295,-0.0927734,
1.03,-0.0601196,
1.0305,-0.0398254,
1.031,-0.0415039,
1.0315,-0.0553894,
1.032,-0.0535583,
1.0325,-0.0228882,
1.033,0.0180054,
1.0335,0.0463867,
1.034,0.0578308,
1.0345,0.0454712,
1.035,0.0186157,
1.0355,-0.00228882,
1.036,-0.0141907,
1.0365,-0.0230408,
1.037,-0.0231934,
1.0375,-0.00946045,
1.038,0.00762939,
1.0385,0.0357056,
1.039,0.0663757,
1.0395,0.0686646,
1.04,0.037384,
1.0405,-0.000457764,
1.041,-0.0286865,
1.0415,-0.0476074,
1.042,-0.035553,
1.0425,0.00900269,
1.043,0.0549316,
1.0435,0.0752258,
1.044,0.0721741,
1.0445,0.0624084,
1.045,0.0587463,
1.0455,0.0636292,
1.046,0.0694275,
1.0465,0.0727844,
1.047,0.0660706,
1.0475,0.043335,
1.048,0.000915527,
1.0485,-0.0474548,
1.049,-0.0692749,
1.0495,-0.058136,
1.05,-0.0263977,
1.0505,0.012207,
1.051,0.0375366,
1.0515,0.0361633,
1.052,0.00732422,
1.0525,-0.0396729,
1.053,-0.0932312,
1.0535,-0.115662,
1.054,-0.0996399,
1.0545,-0.0756836,
1.055,-0.0662231,
1.0555,-0.0843811,
1.056,-0.110626,
1.0565,-0.112762,
1.057,-0.0880432,
1.0575,-0.0508118,
1.058,-0.015564,
1.0585,0.0195313,
1.059,0.0413513,
1.0595,0.0424194,
1.06,0.0372314,
1.0605,0.0343323,
1.061,0.0346375,
1.0615,0.0338745,
1.062,0.0320435,
1.0625,0.0358582,
1.063,0.0370789,
1.0635,0.0285339,
1.064,0.0126648,
1.0645,-0.000610352,
1.065,-0.0115967,
1.0655,-0.0234985,
1.066,-0.0256348,
1.0665,-0.0190735,
1.067,-0.00686646,
1.0675,0.00701904,
1.068,0.0154114,
1.0685,0.0134277,
1.069,0.00274658,
1.0695,-0.00152588,
1.07,0.00183105,
1.0705,0.0157166,
1.071,0.0297546,
1.0715,0.0431824,
1.072,0.0462341,
1.0725,0.0273132,
1.073,-0.00473022,
1.0735,-0.0357056,
1.074,-0.0590515,
1.0745,-0.0642395,
1.075,-0.0570679,
1.0755,-0.0466919,
1.076,-0.0349426,
1.0765,-0.0151062,
1.077,0.0137329,
1.0775,0.0338745,
1.078,0.0299072,
1.0785,0.0259399,
1.079,0.0357056,
1.0795,0.0393677,
1.08,0.0312805,
1.0805,-0.00427246,
1.081,-0.052948,
1.0815,-0.0724792,
1.082,-0.050354,
1.0825,-0.0160217,
1.083,0.00442505,
1.0835,-0.0108337,
1.084,-0.0350952,
1.0845,-0.0286865,
1.085,-0.0119019,
1.0855,0.000762939,
1.086,0.00732422,
1.0865,-0.0088501,
1.087,-0.0418091,
1.0875,-0.0708008,
1.088,-0.0813293,
1.0885,-0.0534058,
1.089,0.00732422,
1.0895,0.0505066,
1.09,0.0648499,
1.0905,0.0706482,
1.091,0.0816345,
1.0915,0.0987244,
1.092,0.101471,
1.0925,0.0846863,
1.093,0.0616455,
1.0935,0.0492859,
1.094,0.0456238,
1.0945,0.0450134,
1.095,0.042572,
1.0955,0.0302124,
1.096,0.00579834,
1.0965,-0.0259399,
1.097,-0.065155,
1.0975,-0.0984192,
1.098,-0.108795,
1.0985,-0.0999451,
1.099,-0.0788879,
1.0995,-0.0442505,
1.1,-0.00228882,
1.1005,0.019989,
1.101,-0.0137329,
1.1015,-0.0827026,
1.102,-0.123138,
1.1025,-0.0968933,
1.103,-0.0390625,
1.1035,0.000610352,
1.104,0.0138855,
1.1045,0.0166321,
1.105,0.0212097,
1.1055,0.0291443,
1.106,0.035553,
1.1065,0.0376892,
1.107,0.030365,
1.1075,0.0163269,
1.108,0.00732422,
1.1085,0.00274658,
1.109,0.000152588,
1.1095,0.000915527,
1.11,0.00259399,
1.1105,-0.00106812,
1.111,-0.00534058,
1.1115,-0.0012207,
1.112,0.00808716,
1.1125,0.00823975,
1.113,0.00595093,
1.1135,0.00823975,
1.114,-0.000610352,
1.1145,-0.0158691,
1.115,-0.0166321,
1.1155,0.0256348,
1.116,0.106049,
1.1165,0.177155,
1.117,0.182648,
1.1175,0.142059,
1.118,0.112762,
1.1185,0.102844,
1.119,0.0747681,
1.1195,0.0601196,
1.12,0.0836182,
1.1205,0.0749207,
1.121,-0.0134277,
1.1215,-0.126801,
1.122,-0.203094,
1.1225,-0.224152,
1.123,-0.20401,
1.1235,-0.14801,
1.124,-0.0749207,
1.1245,-0.00717163,
1.125,0.0276184,
1.1255,0.0193787,
1.126,0.00701904,
1.1265,-0.000152588,
1.127,-0.0167847,
1.1275,-0.0421143,
1.128,-0.0610352,
1.1285,-0.0639343,
1.129,-0.0738525,
1.1295,-0.114594,
1.13,-0.160522,
1.1305,-0.172272,
1.131,-0.140533,
1.1315,-0.0987244,
1.132,-0.0642395,
1.1325,-0.0418091,
1.133,-0.0328064,
1.1335,-0.0317383,
1.134,-0.0257874,
1.1345,-0.00930786,
1.135,0.0115967,
1.1355,0.0309753,
1.136,0.0376892,
1.1365,0.019989,
1.137,-0.00701904,
1.1375,-0.0102234,
1.138,0.00442505,
1.1385,0.0152588,
1.139,0.0270081,
1.1395,0.0512695,
1.14,0.0688171,
1.1405,0.0701904,
1.141,0.0724792,
1.1415,0.0769043,
1.142,0.0758362,
1.1425,0.0708008,
1.143,0.0488281,
1.1435,0.01297,
1.144,-0.0204468,
1.1445,-0.037384,
1.145,-0.0456238,
1.1455,-0.0595093,
1.146,-0.0692749,
1.1465,-0.0863647,
1.147,-0.113831,
1.1475,-0.118408,
1.148,-0.0975037,
1.1485,-0.0808716,
1.149,-0.0721741,
1.1495,-0.0494385,
1.15,-0.0112915,
1.1505,0.0184631,
1.151,0.0311279,
1.1515,0.042572,
1.152,0.0569153,
1.1525,0.0637817,
1.153,0.0697327,
1.1535,0.0752258,
1.154,0.0880432,
1.1545,0.111542,
1.155,0.130768,
1.1555,0.124664,
1.156,0.101471,
1.1565,0.0822449,
1.157,0.0665283,
1.1575,0.0579834,
1.158,0.0567627,
1.1585,0.0520325,
1.159,0.0419617,
1.1595,0.039978,
1.16,0.042572,
1.1605,0.0395203,
1.161,0.0224304,
1.1615,-0.00137329,
1.162,-0.0213623,
1.1625,-0.0314331,
1.163,-0.0276184,
1.1635,-0.00762939,
1.164,0.00991821,
1.1645,0.00473022,
1.165,-0.00854492,
1.1655,-0.0158691,
1.166,-0.0158691,
1.1665,-0.0108337,
1.167,-0.00228882,
1.1675,0.00839233,
1.168,0.0158691,
1.1685,0.0198364,
1.169,0.0244141,
1.1695,0.0344849,
1.17,0.0375366,
1.1705,0.0323486,
1.171,0.0280762,
1.1715,0.0245667,
1.172,0.0196838,
1.1725,0.0216675,
1.173,0.0323486,
1.1735,0.0401306,
1.174,0.0297546,
1.1745,0,
1.175,-0.0331116,
1.1755,-0.0416565,
1.176,-0.0309753,
1.1765,-0.0260925,
1.177,-0.0494385,
1.1775,-0.100708,
1.178,-0.144501,
1.1785,-0.15274,
1.179,-0.133972,
1.1795,-0.102539,
1.18,-0.0779724,
1.1805,-0.0512695,
1.181,-0.0175476,
1.1815,0.0123596,
1.182,0.0201416,
1.1825,0.00991821,
1.183,0.00869751,
1.1835,0.0195313,
1.184,0.0282288,
1.1845,0.0424194,
1.185,0.0538635,
1.1855,0.0448608,
1.186,0.0326538,
1.1865,0.0283813,
1.187,0.0268555,
1.1875,0.0294495,
1.188,0.035553,
1.1885,0.0228882,
1.189,-0.0106812,
1.1895,-0.0312805,
1.19,-0.0408936,
1.1905,-0.0376892,
1.191,-0.0205994,
1.1915,-0.00518799,
1.192,0.000152588,
1.1925,-0.00534058,
1.193,-0.0192261,
1.1935,-0.0273132,
1.194,-0.0227356,
1.1945,-0.0224304,
1.195,-0.0250244,
1.1955,-0.0204468,
1.196,-0.00656128,
1.1965,0.00442505,
1.197,0.0100708,
1.1975,0.019989,
1.198,0.0390625,
1.1985,0.0453186,
1.199,0.0268555,
1.1995,-0.0100708,
1.2,-0.0535583,
1.2005,-0.0817871,
1.201,-0.0810242,
1.2015,-0.0619507,
1.202,-0.0366211,
1.2025,-0.00320435,
1.203,0.0398254,
1.2035,0.0791931,
1.204,0.108948,
1.2045,0.123596,
1.205,0.130768,
1.2055,0.132446,
1.206,0.119476,
1.2065,0.0842285,
1.207,0.025177,
1.2075,-0.0492859,
1.208,-0.116577,
1.2085,-0.150452,
1.209,-0.142212,
1.2095,-0.10376,
1.21,-0.070343,
1.2105,-0.0518799,
1.211,-0.0520325,
1.2115,-0.0787354,
1.212,-0.113525,
1.2125,-0.117798,
1.213,-0.0909424,
1.2135,-0.0648499,
1.214,-0.0382996,
1.2145,-0.000915527,
1.215,0.0234985,
1.2155,0.0238037,
1.216,0.0115967,
1.2165,0.00473022,
1.217,0.0311279,
1.2175,0.0691223,
1.218,0.0843811,
1.2185,0.0727844,
1.219,0.0506592,
1.2195,0.0463867,
1.22,0.043335,
1.2205,0.00946045,
1.221,-0.0288391,
1.2215,-0.0238037,
1.222,0.0134277,
1.2225,0.0337219,
1.223,0.0289917,
1.2235,0.0169373,
1.224,0.00106812,
1.2245,-0.0198364,
1.225,-0.0357056,
1.2255,-0.0469971,
1.226,-0.0448608,
1.2265,-0.0296021,
1.227,-0.0180054,
1.2275,-0.0143433,
1.228,-0.0210571,
1.2285,-0.0378418,
1.229,-0.0500488,
1.2295,-0.0592041,
1.23,-0.0724792,
1.2305,-0.0682068,
1.231,-0.04776,
1.2315,-0.0344849,
1.232,-0.0318909,
1.2325,-0.0219727,
1.233,0.00442505,
1.2335,0.0332642,
1.234,0.0631714,
1.2345,0.0874329,
1.235,0.0914001,
1.2355,0.0665283,
1.236,0.0270081,
1.2365,-0.00610352,
1.237,-0.0424194,
1.2375,-0.0900269,
1.238,-0.113983,
1.2385,-0.0975037,
1.239,-0.072937,
1.2395,-0.0512695,
1.24,-0.0328064,
1.2405,-0.00976563,
1.241,0.0257874,
1.2415,0.0556946,
1.242,0.0816345,
1.2425,0.134277,
1.243,0.186615,
1.2435,0.180206,
1.244,0.137482,
1.2445,0.0926208,
1.245,0.0257874,
1.2455,-0.0387573,
1.246,-0.062561,
1.2465,-0.0424194,
1.247,-0.00869751,
1.2475,0.0119019,
1.248,0.00274658,
1.2485,-0.0170898,
1.249,-0.0283813,
1.2495,-0.0454712,
1.25,-0.067749,
1.2505,-0.0756836,
1.251,-0.057373,
1.2515,-0.0358582,
1.252,-0.0280762,
1.2525,-0.0202942,
1.253,-0.0178528,
1.2535,-0.0138855,
1.254,0.00183105,
1.2545,0.00411987,
1.255,-0.00640869,
1.2555,-0.0189209,
1.256,-0.0184631,
1.2565,-0.000762939,
1.257,0.0186157,
1.2575,0.0265503,
1.258,0.0234985,
1.2585,0.0138855,
1.259,0.00320435,
1.2595,-0.0128174,
1.26,-0.00778198,
1.2605,0.0187683,
1.261,0.0250244,
1.2615,0.00442505,
1.262,-0.00564575,
1.2625,0.00183105,
1.263,0.0227356,
1.2635,0.045166,
1.264,0.0683594,
1.2645,0.0822449,
1.265,0.0863647,
1.2655,0.0891113,
1.266,0.0785828,
1.2665,0.0390625,
1.267,0.0012207,
1.2675,-0.0012207,
1.268,0.0108337,
1.2685,0.00274658,
1.269,-0.0219727,
1.2695,-0.0431824,
1.27,-0.0578308,
1.2705,-0.0532532,
1.271,-0.0315857,
1.2715,-0.0234985,
1.272,-0.0439453,
1.2725,-0.0634766,
1.273,-0.0593567,
1.2735,-0.03479,
1.274,-0.012207,
1.2745,0.00305176,
1.275,0.0172424,
1.2755,0.0256348,
1.276,0.0306702,
1.2765,0.0296021,
1.277,0.0257874,
1.2775,0.0238037,
1.278,0.0238037,
1.2785,0.0247192,
1.279,0.0218201,
1.2795,0.00717163,
1.28,-0.0105286,
1.2805,-0.00793457,
1.281,0.0038147,
1.2815,0.00213623,
1.282,-0.00961304,
1.2825,-0.0238037,
1.283,-0.0349426,
1.2835,-0.0192261,
1.284,0.00854492,
1.2845,0.0204468,
1.285,0.0175476,
1.2855,0.0125122,
1.286,-0.00473022,
1.2865,-0.0364685,
1.287,-0.0656128,
1.2875,-0.0558472,
1.288,-0.0184631,
1.2885,-0.00244141,
1.289,-0.0305176,
1.2895,-0.0688171,
1.29,-0.0772095,
1.2905,-0.0688171,
1.291,-0.0712585,
1.2915,-0.0823975,
1.292,-0.085907,
1.2925,-0.063324,
1.293,-0.0326538,
1.2935,-0.0291443,
1.294,-0.0331116,
1.2945,-0.00762939,
1.295,0.0428772,
1.2955,0.090332,
1.296,0.136566,
1.2965,0.171661,
1.297,0.1828,
1.2975,0.159454,
1.298,0.111694,
1.2985,0.0724792,
1.299,0.0643921,
1.2995,0.0723267,
1.3,0.0643921,
1.3005,0.00991821,
1.301,-0.0888062,
1.3015,-0.166931,
1.302,-0.157928,
1.3025,-0.107117,
1.303,-0.0843811,
1.3035,-0.0794983,
1.304,-0.0543213,
1.3045,-0.00350952,
1.305,0.039978,
1.3055,0.0460815,
1.306,0.0668335,
1.3065,0.0906372,
1.307,0.0587463,
1.3075,-0.0108337,
1.308,-0.0479126,
1.3085,-0.0564575,
1.309,-0.0741577,
1.3095,-0.0775146,
1.31,-0.0650024,
1.3105,-0.0611877,
1.311,-0.0717163,
1.3115,-0.0621033,
1.312,-0.0386047,
1.3125,-0.0285339,
1.313,-0.01297,
1.3135,0.00900269,
1.314,0.0163269,
1.3145,0.0210571,
1.315,0.0228882,
1.3155,0.0137329,
1.316,0.0160217,
1.3165,0.00900269,
1.317,0.00289917,
1.3175,0.0370789,
1.318,0.1091,
1.3185,0.146179,
1.319,0.106049,
1.3195,0.0413513,
1.32,0.00656128,
1.3205,-0.0177002,
1.321,-0.0325012,
1.3215,-0.0236511,
1.322,-0.00656128,
1.3225,0.0038147,
1.323,0.0227356,
1.3235,0.059967,
1.324,0.0860596,
1.3245,0.0686646,
1.325,0.00900269,
1.3255,-0.0552368,
1.326,-0.0759888,
1.3265,-0.0492859,
1.327,-0.0167847,
1.3275,-0.00686646,
1.328,-0.0382996,
1.3285,-0.109711,
1.329,-0.172577,
1.3295,-0.167694,
1.33,-0.093689,
1.3305,-0.0309753,
1.331,-0.0140381,
1.3315,0.00305176,
1.332,0.0250244,
1.3325,0.0132751,
1.333,-0.019989,
1.3335,-0.0259399,
1.334,0.0170898,
1.3345,0.0669861,
1.335,0.0917053,
1.3355,0.091095,
1.336,0.0688171,
1.3365,0.0602722,
1.337,0.0738525,
1.3375,0.0883484,
1.338,0.0776672,
1.3385,0.0480652,
1.339,0.0193787,
1.3395,0.00198364,
1.34,0.00320435,
1.3405,0.0149536,
1.341,0.0274658,
1.3415,0.0335693,
1.342,0.0112915,
1.3425,-0.0193787,
1.343,-0.0582886,
1.3435,-0.138397,
1.344,-0.211182,
1.3445,-0.207062,
1.345,-0.166779,
1.3455,-0.125275,
1.346,-0.0973511,
1.3465,-0.0830078,
1.347,-0.0715637,
1.3475,-0.059967,
1.348,-0.0532532,
1.3485,-0.0338745,
1.349,-0.00167847,
1.3495,0.0177002,
1.35,0.0242615,
1.3505,0.0254822,
1.351,0.0169373,
1.3515,0.00854492,
1.352,-0.0158691,
1.3525,-0.0579834,
1.353,-0.0787354,
1.3535,-0.0628662,
1.354,-0.0242615,
1.3545,0.0257874,
1.355,0.0883484,
1.3555,0.144653,
1.356,0.165253,
1.3565,0.14267,
1.357,0.113831,
1.3575,0.106049,
1.358,0.106506,
1.3585,0.0907898,
1.359,0.065918,
1.3595,0.0297546,
1.36,-0.0233459,
1.3605,-0.0840759,
1.361,-0.102234,
1.3615,-0.0708008,
1.362,-0.0331116,
1.3625,-0.00579834,
1.363,0.0170898,
1.3635,0.0532532,
1.364,0.129852,
1.3645,0.225983,
1.365,0.24353,
1.3655,0.161743,
1.366,0.071106,
1.3665,0.0526428,
1.367,0.0523376,
1.3675,0.0151062,
1.368,-0.0268555,
1.3685,-0.0410461,
1.369,-0.0521851,
1.3695,-0.103302,
1.37,-0.156097,
1.3705,-0.149689,
1.371,-0.0866699,
1.3715,0.0299072,
1.372,0.127258,
1.3725,0.116272,
1.373,0.0297546,
1.3735,-0.0161743,
1.374,0.0222778,
1.3745,0.0683594,
1.375,0.0747681,
1.3755,0.0105286,
1.376,-0.0721741,
1.3765,-0.113678,
1.377,-0.132599,
1.3775,-0.166473,
1.378,-0.160828,
1.3785,-0.108948,
1.379,-0.0775146,
1.3795,-0.0978088,
1.38,-0.14389,
1.3805,-0.160522,
1.381,-0.125427,
1.3815,-0.0648499,
1.382,-0.0282288,
1.3825,-0.0177002,
1.383,-0.00335693,
1.3835,0.0146484,
1.384,0.0215149,
1.3845,0.015564,
1.385,0.0062561,
1.3855,0.00396729,
1.386,0.00534058,
1.3865,0.00793457,
1.387,0.00946045,
1.3875,0.00167847,
1.388,-0.0146484,
1.3885,-0.0299072,
1.389,-0.0285339,
1.3895,0.000610352,
1.39,0.0448608,
1.3905,0.0793457,
1.391,0.0868225,
1.3915,0.0808716,
1.392,0.0878906,
1.3925,0.098114,
1.393,0.0906372,
1.3935,0.111847,
1.394,0.157013,
1.3945,0.144348,
1.395,0.0921631,
1.3955,0.0552368,
1.396,-0.0012207,
1.3965,-0.0566101,
1.397,-0.0395203,
1.3975,0.022583,
1.398,0.0447083,
1.3985,-0.00717163,
1.399,-0.126953,
1.3995,-0.224152,
1.4,-0.201111,
1.4005,-0.101318,
1.401,-0.0408936,
1.4015,-0.0712585,
1.402,-0.142365,
1.4025,-0.153809,
1.403,-0.0865173,
1.4035,-0.00579834,
1.404,0.0508118,
1.4045,0.0694275,
1.405,0.0527954,
1.4055,0.0312805,
1.406,0.0183105,
1.4065,0.0151062,
1.407,-0.00366211,
1.4075,-0.0376892,
1.408,-0.0474548,
1.4085,-0.0259399,
1.409,-0.0135803,
1.4095,-0.0228882,
1.41,-0.0332642,
1.4105,-0.017395,
1.411,0.0222778,
1.4115,0.0645447,
1.412,0.0891113,
1.4125,0.0886536,
1.413,0.0627136,
1.4135,0.0318909,
1.414,0.022583,
1.4145,0.0296021,
1.415,0.0294495,
1.4155,-0.00579834,
1.416,-0.0788879,
1.4165,-0.133209,
1.417,-0.115051,
1.4175,-0.0709534,
1.418,-0.0671387,
1.4185,-0.0886536,
1.419,-0.0918579,
1.4195,-0.0720215,
1.42,-0.0564575,
1.4205,-0.0526428,
1.421,-0.0311279,
1.4215,0.0205994,
1.422,0.0741577,
1.4225,0.106354,
1.423,0.111694,
1.4235,0.0958252,
1.424,0.072937,
1.4245,0.0227356,
1.425,-0.00717163,
1.4255,0.0291443,
1.426,0.108948,
1.4265,0.153198,
1.427,0.144806,
1.4275,0.120087,
1.428,0.0888062,
1.4285,0.0538635,
1.429,0.0279236,
1.4295,0.0158691,
1.43,-0.0212097,
1.4305,-0.0775146,
1.431,-0.120392,
1.4315,-0.161133,
1.432,-0.176544,
1.4325,-0.128021,
1.433,-0.0289917,
1.4335,0.0724792,
1.434,0.144958,
1.4345,0.193787,
1.435,0.215302,
1.4355,0.197144,
1.436,0.15976,
1.4365,0.150757,
1.437,0.170288,
1.4375,0.174408,
1.438,0.128937,
1.4385,0.0318909,
1.439,-0.0718689,
1.4395,-0.127716,
1.44,-0.134583,
1.4405,-0.123596,
1.441,-0.0999451,
1.4415,-0.0379944,
1.442,0.0318909,
1.4425,0.0564575,
1.443,0.035553,
1.4435,-0.00930786,
1.444,-0.0898743,
1.4445,-0.145569,
1.445,-0.12207,
1.4455,-0.0857544,
1.446,-0.0994873,
1.4465,-0.0871277,
1.447,-0.0157166,
1.4475,0.0263977,
1.448,-0.0088501,
1.4485,-0.0949097,
1.449,-0.170898,
1.4495,-0.160828,
1.45,-0.0842285,
1.4505,-0.0196838,
1.451,-0.00106812,
1.4515,-0.0108337,
1.452,0.0184631,
1.4525,0.0822449,
1.453,0.116119,
1.4535,0.104675,
1.454,0.0759888,
1.4545,0.0398254,
1.455,0.00152588,
1.4555,-0.0297546,
1.456,-0.0311279,
1.4565,0.0126648,
1.457,0.0634766,
1.4575,0.0575256,
1.458,-0.00961304,
1.4585,-0.0921631,
1.459,-0.131836,
1.4595,-0.123291,
1.46,-0.0927734,
1.4605,-0.0463867,
1.461,-0.00640869,
1.4615,0.0112915,
1.462,0.014801,
1.4625,0.0215149,
1.463,0.0276184,
1.4635,0.0436401,
1.464,0.0645447,
1.4645,0.045166,
1.465,-0.0288391,
1.4655,-0.11322,
1.466,-0.145264,
1.4665,-0.113831,
1.467,-0.0663757,
1.4675,-0.045166,
1.468,-0.0358582,
1.4685,-0.0125122,
1.469,0.00137329,
1.4695,0.0205994,
1.47,0.0311279,
1.4705,-0.0146484,
1.471,-0.040741,
1.4715,-0.0112915,
1.472,0.00335693,
1.4725,-0.0242615,
1.473,-0.0379944,
1.4735,-0.00778198,
1.474,0.0404358,
1.4745,0.0698853,
1.475,0.0752258,
1.4755,0.0726318,
1.476,0.0759888,
1.4765,0.0788879,
1.477,0.0605774,
1.4775,0.032959,
1.478,0.0100708,
1.4785,-0.0154114,
1.479,-0.0280762,
1.4795,-0.0259399,
1.48,-0.0393677,
1.4805,-0.0465393,
1.481,-0.01297,
1.4815,0.0276184,
1.482,0.0392151,
1.4825,0.0337219,
1.483,0.0216675,
1.4835,-0.00900269,
1.484,-0.0236511,
1.4845,0.000915527,
1.485,0.070343,
1.4855,0.153809,
1.486,0.199127,
1.4865,0.189209,
1.487,0.132446,
1.4875,0.0300598,
1.488,-0.0552368,
1.4885,-0.058136,
1.489,-0.0234985,
1.4895,0.00289917,
1.49,0.00915527,
1.4905,-0.0140381,
1.491,-0.0753784,
1.4915,-0.159607,
1.492,-0.219421,
1.4925,-0.222626,
1.493,-0.154877,
1.4935,-0.0456238,
1.494,0.0183105,
1.4945,-0.00259399,
1.495,-0.0416565,
1.4955,-0.0544739,
1.496,-0.0439453,
1.4965,-0.0186157,
1.497,0.00900269,
1.4975,0.00762939,
1.498,-0.0195313,
1.4985,-0.0219727,
1.499,0.00350952,
1.4995,0.0288391,
1.5,0.0639343,
1.5005,0.108795,
1.501,0.100403,
1.5015,0.0343323,
1.502,-0.0175476,
1.5025,-0.0253296,
1.503,-0.0297546,
1.5035,-0.0552368,
1.504,-0.0862122,
1.5045,-0.10849,
1.505,-0.104675,
1.5055,-0.0756836,
1.506,-0.0201416,
1.5065,0.0527954,
1.507,0.102386,
1.5075,0.0999451,
1.508,0.0621033,
1.5085,0.0250244,
1.509,0.0202942,
1.5095,0.0473022,
1.51,0.0694275,
1.5105,0.088501,
1.511,0.102081,
1.5115,0.092926,
1.512,0.0686646,
1.5125,0.0715637,
1.513,0.0883484,
1.5135,0.0631714,
1.514,0.0012207,
1.5145,-0.0500488,
1.515,-0.0698853,
1.5155,-0.0793457,
1.516,-0.0947571,
1.5165,-0.102997,
1.517,-0.09552,
1.5175,-0.0758362,
1.518,-0.042572,
1.5185,-0.0408936,
1.519,-0.0784302,
1.5195,-0.113525,
1.52,-0.116882,
1.5205,-0.0862122,
1.521,-0.0393677,
1.5215,-0.00396729,
1.522,0.00167847,
1.5225,-0.0140381,
1.523,-0.0221252,
1.5235,-0.0126648,
1.524,0.00244141,
1.5245,0.0267029,
1.525,0.0534058,
1.5255,0.0602722,
1.526,0.0646973,
1.5265,0.0868225,
1.527,0.141602,
1.5275,0.227966,
1.528,0.309448,
1.5285,0.30426,
1.529,0.218506,
1.5295,0.123138,
1.53,0.0590515,
1.5305,0.0170898,
1.531,-0.0134277,
1.5315,-0.0166321,
1.532,0.00732422,
1.5325,0.0386047,
1.533,0.0479126,
1.5335,0.039978,
1.534,0.0267029,
1.5345,0.00778198,
1.535,-0.0828552,
1.5355,-0.215607,
1.536,-0.271454,
1.5365,-0.22522,
1.537,-0.136261,
1.5375,-0.0198364,
1.538,0.0773621,
1.5385,0.112305,
1.539,0.0932312,
1.5395,0.0521851,
1.54,0.0248718,
1.5405,-0.00442505,
1.541,-0.0775146,
1.5415,-0.168762,
1.542,-0.207367,
1.5425,-0.17334,
1.543,-0.098877,
1.5435,-0.0256348,
1.544,0.0117493,
1.5445,0.0172424,
1.545,0.0012207,
1.5455,-0.0160217,
1.546,0.00778198,
1.5465,0.0590515,
1.547,0.0698853,
1.5475,-0.00106812,
1.548,-0.110779,
1.5485,-0.196228,
1.549,-0.22171,
1.5495,-0.189972,
1.55,-0.151978,
1.5505,-0.121613,
1.551,-0.0802612,
1.5515,-0.0192261,
1.552,0.0396729,
1.5525,0.059967,
1.553,0.0762939,
1.5535,0.100708,
1.554,0.0990295,
1.5545,0.0547791,
1.555,-0.00823975,
1.5555,-0.0657654,
1.556,-0.0804138,
1.5565,-0.0387573,
1.557,0.0239563,
1.5575,0.0627136,
1.558,0.0564575,
1.5585,0.0306702,
1.559,0.0126648,
1.5595,0.0210571,
1.56,0.0628662,
1.5605,0.126953,
1.561,0.16571,
1.5615,0.150604,
1.562,0.101471,
1.5625,0.0604248,
1.563,0.0468445,
1.5635,0.0404358,
1.564,0.0340271,
1.5645,0.0340271,
1.565,0.0482178,
1.5655,0.0584412,
1.566,0.0608826,
1.5665,0.0382996,
1.567,-0.0285339,
1.5675,-0.100098,
1.568,-0.126343,
1.5685,-0.112457,
1.569,-0.0926208,
1.5695,-0.098114,
1.57,-0.118256,
1.5705,-0.106506,
1.571,-0.0778198,
1.5715,-0.0682068,
1.572,-0.0894165,
1.5725,-0.115662,
1.573,-0.0865173,
1.5735,-0.0257874,
1.574,-0.00213623,
1.5745,-0.0190735,
1.575,-0.0375366,
1.5755,-0.0527954,
1.576,-0.0604248,
1.5765,-0.0524902,
1.577,-0.0547791,
1.5775,-0.0674438,
1.578,-0.0648499,
1.5785,-0.0442505,
1.579,-0.0184631,
1.5795,0.0201416,
1.58,0.0643921,
1.5805,0.0668335,
1.581,0.0158691,
1.5815,-0.0286865,
1.582,-0.0289917,
1.5825,-0.00793457,
1.583,0.00930786,
1.5835,0.0404358,
1.584,0.110321,
1.5845,0.220795,
1.585,0.325165,
1.5855,0.376587,
1.586,0.387421,
1.5865,0.380402,
1.587,0.367737,
1.5875,0.319672,
1.588,0.198669,
1.5885,0.0245667,
1.589,-0.0852966,
1.5895,-0.0802612,
1.59,-0.037384,
1.5905,-0.0360107,
1.591,-0.0767517,
1.5915,-0.119934,
1.592,-0.179138,
1.5925,-0.249481,
1.593,-0.26947,
1.5935,-0.244141,
1.594,-0.245056,
1.5945,-0.277557,
1.595,-0.237732,
1.5955,-0.111237,
1.596,-0.0292969,
1.5965,-0.0175476,
1.597,0.042572,
1.5975,0.15274,
1.598,0.207672,
1.5985,0.188141,
1.599,0.146027,
1.5995,0.100708,
1.6,0.0798035,
1.6005,0.111694,
1.601,0.178528,
1.6015,0.227203,
1.602,0.207825,
1.6025,0.0985718,
1.603,-0.0421143,
1.6035,-0.130005,
1.604,-0.139465,
1.6045,-0.0724792,
1.605,0.00366211,
1.6055,0.0772095,
1.606,0.10025,
1.6065,0.0402832,
1.607,-0.0610352,
1.6075,-0.192719,
1.608,-0.304108,
1.6085,-0.312347,
1.609,-0.24826,
1.6095,-0.193329,
1.61,-0.153046,
1.6105,-0.0965881,
1.611,-0.015564,
1.6115,0.090332,
1.612,0.161743,
1.6125,0.149841,
1.613,0.108032,
1.6135,0.115204,
1.614,0.167694,
1.6145,0.198212,
1.615,0.175171,
1.6155,0.111237,
1.616,0.0341797,
1.6165,-0.0166321,
1.617,-0.0224304,
1.6175,-0.017395,
1.618,-0.0483704,
1.6185,-0.100708,
1.619,-0.157318,
1.6195,-0.258789,
1.62,-0.395508,
1.6205,-0.453339,
1.621,-0.42038,
1.6215,-0.355377,
1.622,-0.292511,
1.6225,-0.224762,
1.623,-0.14267,
1.6235,-0.0532532,
1.624,0.00167847,
1.6245,0.00549316,
1.625,0.00305176,
1.6255,0.0260925,
1.626,0.0570679,
1.6265,0.0784302,
1.627,0.0871277,
1.6275,0.0888062,
1.628,0.0862122,
1.6285,0.0839233,
1.629,0.0663757,
1.6295,0.0331116,
1.63,0.00259399,
1.6305,-0.0137329,
1.631,-0.00915527,
1.6315,0.0144958,
1.632,0.0323486,
1.6325,0.0276184,
1.633,0.00778198,
1.6335,-0.0088501,
1.634,0.00335693,
1.6345,0.0416565,
1.635,0.0727844,
1.6355,0.0778198,
1.636,0.0682068,
1.6365,0.0543213,
1.637,0.0474548,
1.6375,0.0436401,
1.638,0.0382996,
1.6385,0.0270081,
1.639,0.0198364,
1.6395,0.0254822,
1.64,0.0532532,
1.6405,0.090332,
1.641,0.117645,
1.6415,0.108185,
1.642,0.0563049,
1.6425,-0.0250244,
1.643,-0.0582886,
1.6435,-0.0236511,
1.644,0.0239563,
1.6445,0.0404358,
1.645,0.0466919,
1.6455,0.0746155,
1.646,0.0999451,
1.6465,0.0869751,
1.647,0.0500488,
1.6475,0.0375366,
1.648,0.06073,
1.6485,0.0860596,
1.649,0.0782776,
1.6495,0.0416565,
1.65,0.00320435,
1.6505,-0.0309753,
1.651,-0.06073,
1.6515,-0.0540161,
1.652,-0.0114441,
1.6525,0.0212097,
1.653,0.0395203,
1.6535,0.0575256,
1.654,0.0819397,
1.6545,0.0973511,
1.655,0.0926208,
1.6555,0.0657654,
1.656,0.000915527,
1.6565,-0.071106,
1.657,-0.106812,
1.6575,-0.114746,
1.658,-0.123901,
1.6585,-0.144653,
1.659,-0.166016,
1.6595,-0.144958,
1.66,-0.0741577,
1.6605,0.00961304,
1.661,0.0773621,
1.6615,0.115509,
1.662,0.136566,
1.6625,0.176544,
1.663,0.223083,
1.6635,0.221252,
1.664,0.122375,
1.6645,-0.0062561,
1.665,-0.0230408,
1.6655,0.03479,
1.666,0.065155,
1.6665,0.0671387,
1.667,0.0718689,
1.6675,0.0643921,
1.668,0.000305176,
1.6685,-0.115051,
1.669,-0.200043,
1.6695,-0.179291,
1.67,-0.0764465,
1.6705,0.00915527,
1.671,0.0398254,
1.6715,0.0469971,
1.672,0.0520325,
1.6725,0.0476074,
1.673,0.00930786,
1.6735,-0.055542,
1.674,-0.101776,
1.6745,-0.0938416,
1.675,-0.055542,
1.6755,-0.0308228,
1.676,-0.0189209,
1.6765,-0.01297,
1.677,-0.0540161,
1.6775,-0.149231,
1.678,-0.240936,
1.6785,-0.271606,
1.679,-0.236206,
1.6795,-0.212555,
1.68,-0.188293,
1.6805,-0.102844,
1.681,0.0038147,
1.6815,0.0724792,
1.682,0.0994873,
1.6825,0.103149,
1.683,0.126343,
1.6835,0.192871,
1.684,0.259399,
1.6845,0.249786,
1.685,0.150299,
1.6855,0.112,
1.686,0.200958,
1.6865,0.296936,
1.687,0.315094,
1.6875,0.24826,
1.688,0.1091,
1.6885,-0.0444031,
1.689,-0.0900269,
1.6895,-0.110321,
1.69,-0.269928,
1.6905,-0.473328,
1.691,-0.499115,
1.6915,-0.350189,
1.692,-0.188751,
1.6925,-0.10849,
1.693,-0.0630188,
1.6935,0.00198364,
1.694,0.0720215,
1.6945,0.149078,
1.695,0.257111,
1.6955,0.356598,
1.696,0.396423,
1.6965,0.367432,
1.697,0.270996,
1.6975,0.240479,
1.698,0.262756,
1.6985,0.227509,
1.699,0.169067,
1.6995,0.0956726,
1.7,-0.0163269,
1.7005,-0.149841,
1.701,-0.289917,
1.7015,-0.444031,
1.702,-0.489197,
1.7025,-0.418854,
1.703,-0.43457,
1.7035,-0.540924,
1.704,-0.497131,
1.7045,-0.257263,
1.705,0.00335693,
1.7055,0.15213,
1.706,0.164795,
1.7065,0.0813293,
1.707,0.0488281,
1.7075,0.161896,
1.708,0.256348,
1.7085,0.186768,
1.709,0.125732,
1.7095,0.207977,
1.71,0.355835,
1.7105,0.505981,
1.711,0.653076,
1.7115,0.748596,
1.712,0.718689,
1.7125,0.537872,
1.713,0.228882,
1.7135,-0.306244,
1.714,-0.992584,
1.7145,-1.37634,
1.715,-1.19614,
1.7155,-0.856171,
1.716,-0.826416,
1.7165,-1.01593,
1.717,-1.1467,
1.7175,-1.11511,
1.718,-0.869141,
1.7185,-0.475922,
1.719,-0.132751,
1.7195,0.0517273,
1.72,0.139771,
1.7205,0.187836,
1.721,0.200348,
1.7215,0.173187,
1.722,0.1651,
1.7225,0.194702,
1.723,0.22049,
1.7235,0.206299,
1.724,0.178528,
1.7245,0.177612,
1.725,0.197906,
1.7255,0.202942,
1.726,0.184326,
1.7265,0.193939,
1.727,0.268555,
1.7275,0.367126,
1.728,0.384827,
1.7285,0.297699,
1.729,0.16098,
1.7295,0.0939941,
1.73,0.122681,
1.7305,0.178375,
1.731,0.216675,
1.7315,0.21286,
1.732,0.1828,
1.7325,0.184021,
1.733,0.199432,
1.7335,0.185699,
1.734,0.158386,
1.7345,0.159149,
1.735,0.181274,
1.7355,0.201416,
1.736,0.217133,
1.7365,0.232086,
1.737,0.222473,
1.7375,0.186462,
1.738,0.124359,
1.7385,0.0350952,
1.739,-0.0448608,
1.7395,-0.0741577,
1.74,-0.106201,
1.7405,-0.172882,
1.741,-0.201721,
1.7415,-0.130768,
1.742,-0.0221252,
1.7425,0.0405884,
1.743,0.10437,
1.7435,0.161896,
1.744,0.17807,
1.7445,0.148621,
1.745,0.100555,
1.7455,0.0656128,
1.746,0.058136,
1.7465,0.0509644,
1.747,0.0149536,
1.7475,-0.0704956,
1.748,-0.149689,
1.7485,-0.150604,
1.749,-0.13916,
1.7495,-0.151825,
1.75,-0.119019,
1.7505,-0.0360107,
1.751,0.0372314,
1.7515,0.0819397,
1.752,0.101166,
1.7525,0.128937,
1.753,0.176849,
1.7535,0.208588,
1.754,0.168152,
1.7545,0.0318909,
1.755,-0.145721,
1.7555,-0.25589,
1.756,-0.290222,
1.7565,-0.281067,
1.757,-0.233612,
1.7575,-0.17334,
1.758,-0.124207,
1.7585,-0.0990295,
1.759,-0.0828552,
1.7595,-0.0505066,
1.76,0.00244141,
1.7605,0.0479126,
1.761,0.0740051,
1.7615,0.0775146,
1.762,0.0648499,
1.7625,0.0402832,
1.763,-0.0291443,
1.7635,-0.120544,
1.764,-0.166168,
1.7645,-0.178528,
1.765,-0.185089,
1.7655,-0.177155,
1.766,-0.135651,
1.7665,-0.0758362,
1.767,-0.0285339,
1.7675,0.0137329,
1.768,0.0540161,
1.7685,0.0663757,
1.769,0.0488281,
1.7695,0.0416565,
1.77,0.0656128,
1.7705,0.105591,
1.771,0.135498,
1.7715,0.145721,
1.772,0.147858,
1.7725,0.120544,
1.773,0.0422668,
1.7735,-0.0604248,
1.774,-0.10376,
1.7745,-0.0292969,
1.775,0.0822449,
1.7755,0.134735,
1.776,0.17395,
1.7765,0.274658,
1.777,0.401306,
1.7775,0.516815,
1.778,0.560455,
1.7785,0.52536,
1.779,0.439606,
1.7795,0.312347,
1.78,0.150909,
1.7805,-0.123138,
1.781,-0.524597,
1.7815,-0.793152,
1.782,-0.741272,
1.7825,-0.558167,
1.783,-0.428772,
1.7835,-0.353851,
1.784,-0.271454,
1.7845,-0.175781,
1.785,-0.0999451,
1.7855,-0.0105286,
1.786,0.104065,
1.7865,0.187378,
1.787,0.221252,
1.7875,0.237274,
1.788,0.241394,
1.7885,0.227356,
1.789,0.201569,
1.7895,0.144958,
1.79,0.0134277,
1.7905,-0.194702,
1.791,-0.374756,
1.7915,-0.327606,
1.792,-0.142975,
1.7925,-0.111237,
1.793,-0.198517,
1.7935,-0.20401,
1.794,-0.140991,
1.7945,-0.0819397,
1.795,-0.0253296,
1.7955,0.0241089,
1.796,0.0369263,
1.7965,0.0183105,
1.797,-0.00869751,
1.7975,-0.107727,
1.798,-0.253906,
1.7985,-0.307617,
1.799,-0.267334,
1.7995,-0.240021,
1.8,-0.22171,
1.8005,-0.150604,
1.801,-0.0518799,
1.8015,-0.00183105,
1.802,0.00442505,
1.8025,0.0196838,
1.803,0.0628662,
1.8035,0.101318,
1.804,0.113983,
1.8045,0.113525,
1.805,0.1091,
1.8055,0.0680542,
1.806,0.0140381,
1.8065,0.0338745,
1.807,0.096283,
1.8075,0.136414,
1.808,0.155029,
1.8085,0.149078,
1.809,0.0747681,
1.8095,-0.0186157,
1.81,-0.00305176,
1.8105,0.110626,
1.811,0.177155,
1.8115,0.167084,
1.812,0.130157,
1.8125,0.0514221,
1.813,-0.0241089,
1.8135,-0.0149536,
1.814,0.0286865,
1.8145,0.0167847,
1.815,-0.018158,
1.8155,-0.0315857,
1.816,-0.0886536,
1.8165,-0.224609,
1.817,-0.307922,
1.8175,-0.215912,
1.818,-0.0462341,
1.8185,0.043335,
1.819,0.0596619,
1.8195,0.0750732,
1.82,0.106354,
1.8205,0.127258,
1.821,0.12558,
1.8215,0.0942993,
1.822,0.0337219,
1.8225,-0.0350952,
1.823,-0.0848389,
1.8235,-0.0941467,
1.824,-0.0590515,
1.8245,-0.0187683,
1.825,-0.010376,
1.8255,-0.00137329,
1.826,0.0285339,
1.8265,0.0570679,
1.827,0.0946045,
1.8275,0.138397,
1.828,0.16098,
1.8285,0.153503,
1.829,0.144806,
1.8295,0.154114,
1.83,0.167999,
1.8305,0.154419,
1.831,0.0987244,
1.8315,0.027771,
1.832,-0.0569153,
1.8325,-0.170746,
1.833,-0.240631,
1.8335,-0.166473,
1.834,-0.0248718,
1.8345,0.0543213,
1.835,0.0799561,
1.8355,0.0930786,
1.836,0.0880432,
1.8365,0.0219727,
1.837,-0.078125,
1.8375,-0.0657654,
1.838,0.0732422,
1.8385,0.146027,
1.839,0.0709534,
1.8395,-0.0335693,
1.84,-0.0976563,
1.8405,-0.162048,
1.841,-0.218658,
1.8415,-0.208435,
1.842,-0.150909,
1.8425,-0.0779724,
1.843,-0.0108337,
1.8435,0.0335693,
1.844,0.0492859,
1.8445,0.0323486,
1.845,-0.0166321,
1.8455,-0.0469971,
1.846,-0.037384,
1.8465,-0.0141907,
1.847,0.0105286,
1.8475,0.0366211,
1.848,0.0613403,
1.8485,0.0762939,
1.849,0.0616455,
1.8495,0.0224304,
1.85,-0.0149536,
1.8505,-0.0187683,
1.851,0.0111389,
1.8515,0.0502014,
1.852,0.0737,
1.8525,0.0837708,
1.853,0.0848389,
1.8535,0.0810242,
1.854,0.067749,
1.8545,0.0418091,
1.855,0.0178528,
1.8555,0.0062561,
1.856,-0.00854492,
1.8565,-0.0462341,
1.857,-0.0846863,
1.8575,-0.0901794,
1.858,-0.0750732,
1.8585,-0.0727844,
1.859,-0.0762939,
1.8595,-0.0683594,
1.86,-0.0527954,
1.8605,-0.0352478,
1.861,-0.0204468,
1.8615,0.00198364,
1.862,0.0250244,
1.8625,0.0350952,
1.863,0.0360107,
1.8635,0.0315857,
1.864,0.0309753,
1.8645,0.0343323,
1.865,0.0445557,
1.8655,0.0558472,
1.866,0.0502014,
1.8665,0.0387573,
1.867,0.0279236,
1.8675,0.0164795,
1.868,0.00427246,
1.8685,-0.00656128,
1.869,-0.0204468,
1.8695,-0.0274658,
1.87,-0.0227356,
1.8705,0.00198364,
1.871,0.0457764,
1.8715,0.0894165,
1.872,0.0920105,
1.8725,0.0135803,
1.873,-0.0921631,
1.8735,-0.103455,
1.874,0.00854492,
1.8745,0.112457,
1.875,0.115662,
1.8755,0.0669861,
1.876,0.0292969,
1.8765,0.0238037,
1.877,0.0485229,
1.8775,0.0566101,
1.878,-0.0328064,
1.8785,-0.158386,
1.879,-0.1474,
1.8795,-0.0202942,
1.88,0.0889587,
1.8805,0.155792,
1.881,0.220337,
1.8815,0.281525,
1.882,0.296326,
1.8825,0.25589,
1.883,0.180206,
1.8835,0.0637817,
1.884,-0.0619507,
1.8845,-0.185242,
1.885,-0.311127,
1.8855,-0.317993,
1.886,-0.181122,
1.8865,-0.0709534,
1.887,-0.109863,
1.8875,-0.258789,
1.888,-0.34256,
1.8885,-0.26535,
1.889,-0.128479,
1.8895,-0.0520325,
1.89,-0.0457764,
1.8905,-0.0387573,
1.891,-0.0222778,
1.8915,-0.0570679,
1.892,-0.187531,
1.8925,-0.304413,
1.893,-0.249176,
1.8935,-0.0727844,
1.894,0.0669861,
1.8945,0.117188,
1.895,0.13382,
1.8955,0.157471,
1.896,0.137177,
1.8965,0.0521851,
1.897,-0.0367737,
1.8975,-0.0746155,
1.898,-0.0608826,
1.8985,-0.0419617,
1.899,-0.0158691,
1.8995,0.0038147,
1.9,-0.0209045,
1.9005,-0.0640869,
1.901,-0.0485229,
1.9015,0.0183105,
1.902,0.0805664,
1.9025,0.125122,
1.903,0.166321,
1.9035,0.19989,
1.904,0.22049,
1.9045,0.197449,
1.905,0.0421143,
1.9055,-0.238953,
1.906,-0.40741,
1.9065,-0.330811,
1.907,-0.179443,
1.9075,-0.0898743,
1.908,-0.0379944,
1.9085,0.0050354,
1.909,0.0375366,
1.9095,0.0617981,
1.91,0.0727844,
1.9105,0.0694275,
1.911,0.0511169,
1.9115,0.0164795,
1.912,-0.0205994,
1.9125,-0.0415039,
1.913,-0.0205994,
1.9135,0.0149536,
1.914,0.0109863,
1.9145,-0.0143433,
1.915,-0.0201416,
1.9155,-0.030365,
1.916,-0.0680542,
1.9165,-0.106812,
1.917,-0.0932312,
1.9175,-0.0146484,
1.918,0.088501,
1.9185,0.164032,
1.919,0.198212,
1.9195,0.203094,
1.92,0.173798,
1.9205,0.149689,
1.921,0.157013,
1.9215,0.173187,
1.922,0.176697,
1.9225,0.18631,
1.923,0.190582,
1.9235,0.192871,
1.924,0.199127,
1.9245,0.176544,
1.925,0.139008,
1.9255,0.123596,
1.926,0.106659,
1.9265,0.0193787,
1.927,-0.143433,
1.9275,-0.36438,
1.928,-0.559845,
1.9285,-0.585938,
1.929,-0.435638,
1.9295,-0.262299,
1.93,-0.156403,
1.9305,-0.0926208,
1.931,-0.0292969,
1.9315,0.0289917,
1.932,0.0604248,
1.9325,0.0628662,
1.933,0.0549316,
1.9335,0.0753784,
1.934,0.120392,
1.9345,0.149841,
1.935,0.166931,
1.9355,0.200043,
1.936,0.242615,
1.9365,0.271912,
1.937,0.268555,
1.9375,0.188751,
1.938,0.0700378,
1.9385,0.00854492,
1.939,-0.00549316,
1.9395,-0.0273132,
1.94,-0.0424194,
1.9405,-0.0340271,
1.941,-0.0297546,
1.9415,-0.0840759,
1.942,-0.16037,
1.9425,-0.17868,
1.943,-0.173035,
1.9435,-0.190887,
1.944,-0.180969,
1.9445,-0.0956726,
1.945,-0.00488281,
1.9455,0.0341797,
1.946,0.0764465,
1.9465,0.179291,
1.947,0.27298,
1.9475,0.309296,
1.948,0.2771,
1.9485,0.145721,
1.949,-0.0120544,
1.9495,-0.0764465,
1.95,-0.0404358,
1.9505,-0.0610352,
1.951,-0.237885,
1.9515,-0.394897,
1.952,-0.39444,
1.9525,-0.348358,
1.953,-0.3302,
1.9535,-0.296478,
1.954,-0.246429,
1.9545,-0.216522,
1.955,-0.186768,
1.9555,-0.124664,
1.956,-0.0759888,
1.9565,-0.0883484,
1.957,-0.111542,
1.9575,-0.0776672,
1.958,0.0192261,
1.9585,0.12207,
1.959,0.180664,
1.9595,0.192413,
1.96,0.183411,
1.9605,0.173492,
1.961,0.157471,
1.9615,0.138702,
1.962,0.131531,
1.9625,0.126495,
1.963,0.111389,
1.9635,0.087738,
1.964,0.0578308,
1.9645,0.0248718,
1.965,0.000610352,
1.9655,0.00717163,
1.966,0.0288391,
1.9665,0.0238037,
1.967,-0.00350952,
1.9675,-0.0170898,
1.968,-0.0239563,
1.9685,-0.0325012,
1.969,-0.0299072,
1.9695,-0.0205994,
1.97,-0.0105286,
1.9705,-0.00167847,
1.971,0.00930786,
1.9715,0.025177,
1.972,0.038147,
1.9725,0.0480652,
1.973,0.0523376,
1.9735,0.0582886,
1.974,0.0762939,
1.9745,0.0904846,
1.975,0.088501,
1.9755,0.0654602,
1.976,0.0259399,
1.9765,-0.0140381,
1.977,-0.0364685,
1.9775,-0.0326538,
1.978,-0.0177002,
1.9785,0.0038147,
1.979,0.0239563,
1.9795,0.0297546,
1.98,0.0247192,
1.9805,0.0201416,
1.981,0.00869751,
1.9815,-0.0177002,
1.982,-0.0532532,
1.9825,-0.0733948,
1.983,-0.062561,
1.9835,-0.0398254,
1.984,-0.0205994,
1.9845,-0.0115967,
1.985,-0.00808716,
1.9855,-0.00686646,
1.986,-0.00579834,
1.9865,-0.00259399,
1.987,0.00335693,
1.9875,0.010376,
1.988,0.0117493,
1.9885,0.0111389,
1.989,0.00671387,
1.9895,0.00198364,
1.99,0.00228882,
1.9905,0.000305176,
1.991,-0.00640869,
1.9915,-0.0050354,
1.992,0.00671387,
1.9925,0.0152588,
1.993,0.0100708,
1.9935,-0.00106812,
1.994,-0.00366211,
1.9945,0.000762939,
1.995,0.000152588,
1.9955,-0.00701904,
1.996,-0.0164795,
1.9965,-0.0242615,
1.997,-0.0286865,
1.9975,-0.0286865,
1.998,-0.0131226,
1.9985,0.00518799,
1.999,0.0177002,
1.9995,0.0337219,
2,0.0553894,
2.0005,0.0611877,
2.001,0.0482178,
2.0015,0.0300598,
2.002,0.0125122,
2.0025,0.0120544,
2.003,0.0378418,
2.0035,0.0538635,
2.004,0.0228882,
2.0045,-0.0520325,
2.005,-0.0971985,
2.0055,-0.0621033,
2.006,-0.0312805,
2.0065,-0.0909424,
2.007,-0.155945,
2.0075,-0.112,
2.008,0.0105286,
2.0085,0.100861,
2.009,0.118713,
2.0095,0.0926208,
2.01,0.0494385,
2.0105,0.015564,
2.011,-0.00259399,
2.0115,-0.0117493,
2.012,-0.0120544,
2.0125,-0.0115967,
2.013,-0.0154114,
2.0135,-0.0157166,
2.014,-0.0114441,
2.0145,-0.00976563,
2.015,-0.0282288,
2.0155,-0.0804138,
2.016,-0.135345,
2.0165,-0.167236,
2.017,-0.166626,
2.0175,-0.127411,
2.018,-0.0740051,
2.0185,-0.0228882,
2.019,0.0146484,
2.0195,0.0224304,
2.02,0.00656128,
2.0205,-0.0154114,
2.021,-0.0346375,
2.0215,-0.0279236,
2.022,0.000915527,
2.0225,0.0172424,
2.023,0.00534058,
2.0235,-0.0184631,
2.024,-0.037384,
2.0245,-0.0270081,
2.025,0.00793457,
2.0255,0.0430298,
2.026,0.0567627,
2.0265,0.0335693,
2.027,-0.00213623,
2.0275,-0.0213623,
2.028,-0.020752,
2.0285,-0.00778198,
2.029,0.00686646,
2.0295,0.0135803,
2.03,-0.0111389,
2.0305,-0.0354004,
2.031,-0.0323486,
2.0315,-0.0143433,
2.032,-0.0050354,
2.0325,0.00305176,
2.033,0.0140381,
2.0335,0.0276184,
2.034,0.0436401,
2.0345,0.0508118,
2.035,0.0502014,
2.0355,0.0540161,
2.036,0.0552368,
2.0365,0.0364685,
2.037,-0.0177002,
2.0375,-0.0411987,
2.038,0.00549316,
2.0385,0.0686646,
2.039,0.10849,
2.0395,0.124207,
2.04,0.145264,
2.0405,0.195465,
2.041,0.267944,
2.0415,0.317993,
2.042,0.328979,
2.0425,0.319061,
2.043,0.3125,
2.0435,0.297089,
2.044,0.209656,
2.0445,0.0537109,
2.045,-0.0292969,
2.0455,-0.000457764,
2.046,-0.012207,
2.0465,-0.165558,
2.047,-0.385895,
2.0475,-0.490723,
2.048,-0.391235,
2.0485,-0.22583,
2.049,-0.126495,
2.0495,-0.136566,
2.05,-0.231934,
2.0505,-0.291901,
2.051,-0.296783,
2.0515,-0.296936,
2.052,-0.264893,
2.0525,-0.187683,
2.053,-0.113525,
2.0535,-0.085144,
2.054,-0.0831604,
2.0545,-0.0764465,
2.055,-0.0726318,
2.0555,-0.0741577,
2.056,-0.0622559,
2.0565,-0.0509644,
2.057,-0.0535583,
2.0575,-0.0579834,
2.058,-0.0428772,
2.0585,-0.00427246,
2.059,0.0306702,
2.0595,0.0523376,
2.06,0.0640869,
2.0605,0.0556946,
2.061,0.0366211,
2.0615,0.0473022,
2.062,0.0862122,
2.0625,0.109406,
2.063,0.103912,
2.0635,0.0794983,
2.064,0.0485229,
2.0645,0.0317383,
2.065,0.030365,
2.0655,0.0393677,
2.066,0.0372314,
2.0665,0.0201416,
2.067,-0.00579834,
2.0675,-0.0286865,
2.068,-0.0297546,
2.0685,0.00213623,
2.069,0.0334167,
2.0695,0.0233459,
2.07,-0.0178528,
2.0705,-0.0738525,
2.071,-0.109253,
2.0715,-0.0497437,
2.072,0.0904846,
2.0725,0.224762,
2.073,0.297241,
2.0735,0.32135,
2.074,0.340729,
2.0745,0.350037,
2.075,0.323181,
2.0755,0.27771,
2.076,0.237732,
2.0765,0.18158,
2.077,0.0796509,
2.0775,-0.0834656,
2.078,-0.283203,
2.0785,-0.370483,
2.079,-0.305786,
2.0795,-0.26001,
2.08,-0.260162,
2.0805,-0.207214,
2.081,-0.122681,
2.0815,-0.0672913,
2.082,-0.0439453,
2.0825,-0.0315857,
2.083,-0.0253296,
2.0835,-0.0268555,
2.084,-0.038147,
2.0845,-0.0830078,
2.085,-0.119171,
2.0855,-0.0817871,
2.086,0.00717163,
2.0865,0.0585938,
2.087,0.0593567,
2.0875,0.0947571,
2.088,0.186615,
2.0885,0.270081,
2.089,0.304108,
2.0895,0.31723,
2.09,0.342255,
2.0905,0.36087,
2.091,0.352478,
2.0915,0.347443,
2.092,0.36911,
2.0925,0.34729,
2.093,0.214233,
2.0935,-0.0445557,
2.094,-0.398254,
2.0945,-0.681305,
2.095,-0.705872,
2.0955,-0.564423,
2.096,-0.463715,
2.0965,-0.429688,
2.097,-0.389099,
2.0975,-0.307007,
2.098,-0.203094,
2.0985,-0.115967,
2.099,-0.0653076,
2.0995,-0.0846863,
2.1,-0.123138,
2.1005,-0.0976563,
2.101,-0.052948,
2.1015,-0.0239563,
2.102,0.0325012,
2.1025,0.0987244,
2.103,0.14328,
2.1035,0.181885,
2.104,0.228271,
2.1045,0.256958,
2.105,0.244751,
2.1055,0.220947,
2.106,0.20462,
2.1065,0.198975,
2.107,0.203552,
2.1075,0.218811,
2.108,0.240784,
2.1085,0.28183,
2.109,0.333862,
2.1095,0.411072,
2.11,0.439911,
2.1105,0.395203,
2.111,0.373535,
2.1115,0.384369,
2.112,0.408173,
2.1125,0.401917,
2.113,0.271606,
2.1135,-0.0210571,
2.114,-0.453796,
2.1145,-0.924072,
2.115,-1.09543,
2.1155,-0.821381,
2.116,-0.452576,
2.1165,-0.345612,
2.117,-0.419006,
2.1175,-0.478821,
2.118,-0.504913,
2.1185,-0.482788,
2.119,-0.430756,
2.1195,-0.357056,
2.12,-0.211487,
2.1205,-0.0195313,
2.121,0.104065,
2.1215,0.149841,
2.122,0.157013,
2.1225,0.102997,
2.123,0.0674438,
2.1235,0.130005,
2.124,0.228577,
2.1245,0.257874,
2.125,0.289459,
2.1255,0.345154,
2.126,0.310516,
2.1265,0.170288,
2.127,0.0775146,
2.1275,0.14389,
2.128,0.303192,
2.1285,0.419922,
2.129,0.42511,
2.1295,0.370026,
2.13,0.31189,
2.1305,0.213318,
2.131,0.00274658,
2.1315,-0.294189,
2.132,-0.494995,
2.1325,-0.58197,
2.133,-0.655518,
2.1335,-0.634766,
2.134,-0.435333,
2.1345,-0.247192,
2.135,-0.174866,
2.1355,-0.120697,
2.136,-0.0552368,
2.1365,-0.0119019,
2.137,0.0323486,
2.1375,0.0907898,
2.138,0.125122,
2.1385,0.146942,
2.139,0.177765,
2.1395,0.198059,
2.14,0.218658,
2.1405,0.271454,
2.141,0.324249,
2.1415,0.345001,
2.142,0.336151,
2.1425,0.291748,
2.143,0.154572,
2.1435,-0.058136,
2.144,-0.244598,
2.1445,-0.365295,
2.145,-0.332031,
2.1455,-0.116882,
2.146,0.118866,
2.1465,0.267334,
2.147,0.381317,
2.1475,0.471649,
2.148,0.406494,
2.1485,0.0827026,
2.149,-0.302887,
2.1495,-0.422668,
2.15,-0.386047,
2.1505,-0.455322,
2.151,-0.513458,
2.1515,-0.358582,
2.152,-0.14389,
2.1525,-0.0712585,
2.153,-0.0639343,
2.1535,-0.0335693,
2.154,-0.0167847,
2.1545,-0.0112915,
2.155,-0.00305176,
2.1555,0.00366211,
2.156,0.00762939,
2.1565,0.0119019,
2.157,0.0187683,
2.1575,0.0344849,
2.158,0.0514221,
2.1585,0.0512695,
2.159,0.0376892,
2.1595,0.0114441,
2.16,-0.0216675,
2.1605,-0.0242615,
2.161,0.00350952,
2.1615,0.0416565,
2.162,0.0749207,
2.1625,0.108948,
2.163,0.145111,
2.1635,0.190887,
2.164,0.313873,
2.1645,0.41275,
2.165,0.380096,
2.1655,0.353241,
2.166,0.437317,
2.1665,0.475311,
2.167,0.346985,
2.1675,0.0906372,
2.168,-0.164948,
2.1685,-0.351257,
2.169,-0.605774,
2.1695,-1.06262,
2.17,-1.4267,
2.1705,-1.33804,
2.171,-0.943298,
2.1715,-0.569153,
2.172,-0.285034,
2.1725,-0.0244141,
2.173,0.211792,
2.1735,0.333862,
2.174,0.334015,
2.1745,0.306396,
2.175,0.297546,
2.1755,0.265808,
2.176,0.275116,
2.1765,0.434875,
2.177,0.618896,
2.1775,0.692444,
2.178,0.6633,
2.1785,0.573273,
2.179,0.523834,
2.1795,0.496674,
2.18,0.462494,
2.1805,0.529938,
2.181,0.619659,
2.1815,0.389709,
2.182,-0.113831,
2.1825,-0.442657,
2.183,-0.457764,
2.1835,-0.502472,
2.184,-0.779572,
2.1845,-0.944366,
2.185,-0.699768,
2.1855,-0.339508,
2.186,-0.169678,
2.1865,-0.101318,
2.187,-0.0387573,
2.1875,-0.0038147,
2.188,-0.0231934,
2.1885,-0.0706482,
2.189,-0.101318,
2.1895,-0.0845337,
2.19,-0.0645447,
2.1905,-0.0894165,
2.191,-0.150909,
2.1915,-0.192871,
2.192,-0.167542,
2.1925,-0.114441,
2.193,-0.0846863,
2.1935,-0.0384521,
2.194,0.0750732,
2.1945,0.181122,
2.195,0.214081,
2.1955,0.222168,
2.196,0.239868,
2.1965,0.227814,
2.197,0.214996,
2.1975,0.190735,
2.198,0.114288,
2.1985,0.0204468,
2.199,-0.0526428,
2.1995,-0.0785828,
2.2,-0.075531,
2.2005,-0.0569153,
2.201,-0.0314331,
2.2015,-0.00259399,
2.202,-0.00854492,
2.2025,-0.0692749,
2.203,-0.101166,
2.2035,-0.0767517,
2.204,-0.0462341,
2.2045,-0.00335693,
2.205,0.0648499,
2.2055,0.145874,
2.206,0.193329,
2.2065,0.157166,
2.207,0.113373,
2.2075,0.171661,
2.208,0.283356,
2.2085,0.402527,
2.209,0.525055,
2.2095,0.562744,
2.21,0.416412,
2.2105,0.153351,
2.211,-0.0350952,
2.2115,-0.119476,
2.212,-0.107269,
2.2125,0.000762939,
2.213,-0.0158691,
2.2135,-0.388641,
2.214,-0.662994,
2.2145,-0.48996,
2.215,-0.218964,
2.2155,-0.105896,
2.216,-0.179291,
2.2165,-0.372925,
2.217,-0.415497,
2.2175,-0.278015,
2.218,-0.178528,
2.2185,-0.183716,
2.219,-0.281067,
2.2195,-0.478821,
2.22,-0.610046,
2.2205,-0.545349,
2.221,-0.313263,
2.2215,-0.0430298,
2.222,0.191956,
2.2225,0.382843,
2.223,0.494537,
2.2235,0.480957,
2.224,0.357819,
2.2245,0.271759,
2.225,0.276489,
2.2255,0.281372,
2.226,0.226135,
2.2265,0.107574,
2.227,-0.0325012,
2.2275,-0.101013,
2.228,-0.0610352,
2.2285,-0.00457764,
2.229,-0.00671387,
2.2295,-0.0253296,
2.23,-0.0338745,
2.2305,-0.020752,
2.231,0.00762939,
2.2315,0.037384,
2.232,0.0454712,
2.2325,0.0471497,
2.233,0.0613403,
2.2335,0.0352478,
2.234,-0.0320435,
2.2345,-0.0564575,
2.235,0.00411987,
2.2355,0.0718689,
2.236,0.0772095,
2.2365,0.0430298,
2.237,0.0306702,
2.2375,0.0590515,
2.238,0.115509,
2.2385,0.151062,
2.239,0.137939,
2.2395,0.0999451,
2.24,0.0791931,
2.2405,0.0773621,
2.241,0.0785828,
2.2415,0.0735474,
2.242,0.0794983,
2.2425,0.103912,
2.243,0.09552,
2.2435,0.0140381,
2.244,-0.0552368,
2.2445,-0.105133,
2.245,-0.146942,
2.2455,-0.132599,
2.246,-0.0382996,
2.2465,0.0605774,
2.247,0.0883484,
2.2475,0.0682068,
2.248,0.0508118,
2.2485,0.0343323,
2.249,0.00198364,
2.2495,-0.0643921,
2.25,-0.122986,
2.2505,-0.100098,
2.251,-0.04776,
2.2515,-0.0276184,
2.252,-0.0172424,
2.2525,-0.0120544,
2.253,-0.0305176,
2.2535,-0.0238037,
2.254,0.0233459,
2.2545,0.110931,
2.255,0.186005,
2.2555,0.177917,
2.256,0.117645,
2.2565,0.0585938,
2.257,-0.0180054,
2.2575,-0.0431824,
2.258,-0.0436401,
2.2585,-0.162811,
2.259,-0.262146,
2.2595,-0.166779,
2.26,-0.0192261,
2.2605,0.0448608,
2.261,0.0592041,
2.2615,0.019989,
2.262,-0.102997,
2.2625,-0.238495,
2.263,-0.330963,
2.2635,-0.26474,
2.264,-0.0636292,
2.2645,0.0996399,
2.265,0.171967,
2.2655,0.189362,
2.266,0.173645,
2.2665,0.157623,
2.267,0.13092,
2.2675,0.122986,
2.268,0.155029,
2.2685,0.122375,
2.269,-0.0610352,
2.2695,-0.200806,
2.27,-0.140076,
2.2705,-0.0410461,
2.271,0.0312805,
2.2715,0.0376892,
2.272,-0.0975037,
2.2725,-0.316162,
2.273,-0.509644,
2.2735,-0.592804,
2.274,-0.489502,
2.2745,-0.318451,
2.275,-0.208282,
2.2755,-0.208893,
2.276,-0.272369,
2.2765,-0.236816,
2.277,-0.0912476,
2.2775,0.0572205,
2.278,0.190582,
2.2785,0.343018,
2.279,0.478058,
2.2795,0.559387,
2.28,0.619049,
2.2805,0.679321,
2.281,0.740356,
2.2815,0.706024,
2.282,0.452118,
2.2825,0.0469971,
2.283,-0.330811,
2.2835,-0.460358,
2.284,-0.293274,
2.2845,-0.289459,
2.285,-0.634308,
2.2855,-0.785522,
2.286,-0.518341,
2.2865,-0.211334,
2.287,-0.123291,
2.2875,-0.101624,
2.288,-0.00671387,
2.2885,0.0483704,
2.289,0.0108337,
2.2895,-0.0526428,
2.29,-0.0518799,
2.2905,0.00137329,
2.291,0.0201416,
2.2915,0.00335693,
2.292,0.0416565,
2.2925,0.139465,
2.293,0.216675,
2.2935,0.233154,
2.294,0.231934,
2.2945,0.213623,
2.295,0.15152,
2.2955,0.0994873,
2.296,0.100403,
2.2965,0.12558,
2.297,0.176849,
2.2975,0.231781,
2.298,0.211639,
2.2985,0.0808716,
2.299,-0.0984192,
2.2995,-0.235291,
2.3,-0.272217,
2.3005,-0.272522,
2.301,-0.290833,
2.3015,-0.242462,
2.302,-0.2005,
2.3025,-0.352783,
2.303,-0.47699,
2.3035,-0.315552,
2.304,-0.0354004,
2.3045,0.13443,
2.305,0.169983,
2.3055,0.142975,
2.306,0.0698853,
2.3065,-0.0309753,
2.307,-0.0508118,
2.3075,0.0473022,
2.308,0.122528,
2.3085,0.0949097,
2.309,0.0532532,
2.3095,0.118561,
2.31,0.195923,
2.3105,0.177002,
2.311,0.119019,
2.3115,0.113983,
2.312,0.171356,
2.3125,0.237122,
2.313,0.229034,
2.3135,0.140686,
2.314,0.0869751,
2.3145,0.104675,
2.315,0.151215,
2.3155,0.171204,
2.316,0.139923,
2.3165,0.080719,
2.317,0.0172424,
2.3175,-0.0315857,
2.318,-0.00793457,
2.3185,0.110931,
2.319,0.222778,
2.3195,0.247955,
2.32,0.173035,
2.3205,-0.039978,
2.321,-0.148621,
2.3215,-0.00518799,
2.322,0.136261,
2.3225,0.0550842,
2.323,-0.142975,
2.3235,-0.287323,
2.324,-0.343781,
2.3245,-0.249786,
2.325,-0.105896,
2.3255,-0.150146,
2.326,-0.244141,
2.3265,-0.19043,
2.327,-0.0811768,
2.3275,-0.0883484,
2.328,-0.129089,
2.3285,-0.120697,
2.329,-0.165405,
2.3295,-0.30777,
2.33,-0.458679,
2.3305,-0.463715,
2.331,-0.279999,
2.3315,-0.111084,
2.332,-0.018158,
2.3325,0.103455,
2.333,0.257111,
2.3335,0.384674,
2.334,0.44693,
2.3345,0.449982,
2.335,0.478363,
2.3355,0.533905,
2.336,0.497589,
2.3365,0.278015,
2.337,0.0323486,
2.3375,-0.0149536,
2.338,0.0642395,
2.3385,0.113525,
2.339,0.102997,
2.3395,0.187683,
2.34,0.282898,
2.3405,0.182648,
2.341,-0.0846863,
2.3415,-0.343475,
2.342,-0.484772,
2.3425,-0.445862,
2.343,-0.204315,
2.3435,-0.00915527,
2.344,-0.0389099,
2.3445,-0.258636,
2.345,-0.423431,
2.3455,-0.354156,
2.346,-0.251007,
2.3465,-0.262604,
2.347,-0.235596,
2.3475,-0.062561,
2.348,0.126495,
2.3485,0.186768,
2.349,0.168915,
2.3495,0.147858,
2.35,0.107422,
2.3505,0.0582886,
2.351,0.0213623,
2.3515,0.00198364,
2.352,0.00869751,
2.3525,0.0343323,
2.353,0.0997925,
2.3535,0.150757,
2.354,0.0917053,
2.3545,-0.112305,
2.355,-0.293732,
2.3555,-0.208588,
2.356,0.0158691,
2.3565,0.127411,
2.357,0.0769043,
2.3575,-0.0138855,
2.358,-0.0854492,
2.3585,-0.159912,
2.359,-0.260315,
2.3595,-0.395966,
2.36,-0.485382,
2.3605,-0.394135,
2.361,-0.172119,
2.3615,0.0570679,
2.362,0.323029,
2.3625,0.550842,
2.363,0.578918,
2.3635,0.51651,
2.364,0.582275,
2.3645,0.688019,
2.365,0.547943,
2.3655,0.0805664,
2.366,-0.372009,
2.3665,-0.572357,
2.367,-0.648041,
2.3675,-0.660706,
2.368,-0.592041,
2.3685,-0.496063,
2.369,-0.484314,
2.3695,-0.57251,
2.37,-0.519562,
2.3705,-0.218964,
2.371,0.140533,
2.3715,0.334625,
2.372,0.35614,
2.3725,0.366364,
2.373,0.467377,
2.3735,0.602264,
2.374,0.694275,
2.3745,0.688629,
2.375,0.621643,
2.3755,0.51651,
2.376,0.237579,
2.3765,-0.178833,
2.377,-0.395203,
2.3775,-0.257416,
2.378,-0.142365,
2.3785,-0.371552,
2.379,-0.604401,
2.3795,-0.480194,
2.38,-0.250549,
2.3805,-0.175018,
2.381,-0.128937,
2.3815,-0.012207,
2.382,0.105438,
2.3825,0.174255,
2.383,0.19516,
2.3835,0.186615,
2.384,0.169983,
2.3845,0.150757,
2.385,0.128174,
2.3855,0.104523,
2.386,0.0918579,
2.3865,0.114899,
2.387,0.162201,
2.3875,0.171356,
2.388,0.117493,
2.3885,0.020752,
2.389,-0.0564575,
2.3895,-0.0675964,
2.39,-0.0413513,
2.3905,-0.0125122,
2.391,0.0386047,
2.3915,0.122986,
2.392,0.200348,
2.3925,0.227051,
2.393,0.2388,
2.3935,0.336151,
2.394,0.385284,
2.3945,0.144501,
2.395,-0.147858,
2.3955,-0.101929,
2.396,0.0692749,
2.3965,0.0454712,
2.397,-0.0518799,
2.3975,-0.0366211,
2.398,0.0860596,
2.3985,0.191803,
2.399,0.134735,
2.3995,-0.0474548,
2.4,-0.127716,
2.4005,-0.0862122,
2.401,-0.0144958,
2.4015,0.0401306,
2.402,-0.0239563,
2.4025,-0.348206,
2.403,-0.816956,
2.4035,-1.10031,
2.404,-0.995178,
2.4045,-0.579834,
2.405,-0.0759888,
2.4055,0.301971,
2.406,0.480042,
2.4065,0.480347,
2.407,0.317688,
2.4075,0.0737,
2.408,-0.13092,
2.4085,-0.253143,
2.409,-0.34317,
2.4095,-0.567627,
2.41,-0.873871,
2.4105,-0.874023,
2.411,-0.473328,
2.4115,-0.0674438,
2.412,0.0834656,
2.4125,0.0978088,
2.413,0.0856018,
2.4135,0.0886536,
2.414,0.124817,
2.4145,0.166931,
2.415,0.24826,
2.4155,0.359802,
2.416,0.39444,
2.4165,0.33371,
2.417,0.236359,
2.4175,0.156555,
2.418,0.132446,
2.4185,0.167847,
2.419,0.202942,
2.4195,0.212708,
2.42,0.258636,
2.4205,0.446777,
2.421,0.70816,
2.4215,0.886688,
2.422,0.870209,
2.4225,0.571136,
2.423,0.156097,
2.4235,0.0738525,
2.424,0.315399,
2.4245,0.3862,
2.425,-0.0366211,
2.4255,-0.721588,
2.426,-1.11588,
2.4265,-0.989532,
2.427,-0.589294,
2.4275,-0.283203,
2.428,-0.182953,
2.4285,-0.185089,
2.429,-0.131378,
2.4295,-0.0128174,
2.43,0.0932312,
2.4305,0.174713,
2.431,0.18631,
2.4315,0.107117,
2.432,0.0180054,
2.4325,-0.0488281,
2.433,-0.0985718,
2.4335,-0.111542,
2.434,-0.106506,
2.4345,-0.146942,
2.435,-0.209961,
2.4355,-0.230255,
2.436,-0.146027,
2.4365,-0.0550842,
2.437,-0.117035,
2.4375,-0.298462,
2.438,-0.412903,
2.4385,-0.409546,
2.439,-0.322571,
2.4395,-0.148773,
2.44,0.0209045,
2.4405,0.140533,
2.441,0.218201,
2.4415,0.219116,
2.442,0.167084,
2.4425,0.148926,
2.443,0.142517,
2.4435,0.102692,
2.444,0.0415039,
2.4445,-0.0230408,
2.445,-0.0900269,
2.4455,-0.141907,
2.446,-0.210724,
2.4465,-0.259705,
2.447,-0.211945,
2.4475,-0.052948,
2.448,0.181885,
2.4485,0.340118,
2.449,0.364227,
2.4495,0.284424,
2.45,0.144348,
2.4505,0.139465,
2.451,0.314636,
2.4515,0.523529,
2.452,0.725861,
2.4525,0.955048,
2.453,1.05408,
2.4535,0.877075,
2.454,0.590363,
2.4545,0.446625,
2.455,0.424957,
2.4555,0.341492,
2.456,0.130615,
2.4565,-0.211029,
2.457,-0.651093,
2.4575,-1.03088,
2.458,-1.13998,
2.4585,-1.01013,
2.459,-0.758057,
2.4595,-0.568848,
2.46,-0.449677,
2.4605,-0.330811,
2.461,-0.235596,
2.4615,-0.196533,
2.462,-0.189667,
2.4625,-0.172272,
2.463,-0.122681,
2.4635,-0.092926,
2.464,-0.111694,
2.4645,-0.13382,
2.465,-0.128479,
2.4655,-0.110168,
2.466,-0.0907898,
2.4665,-0.0590515,
2.467,-0.000762939,
2.4675,-0.0402832,
2.468,-0.0662231,
2.4685,0.130005,
2.469,0.369873,
2.4695,0.465546,
2.47,0.481415,
2.4705,0.442352,
2.471,0.288849,
2.4715,0.123749,
2.472,0.0880432,
2.4725,0.0871277,
2.473,0.070343,
2.4735,0.0689697,
2.474,0.0521851,
2.4745,0.0915527,
2.475,0.24292,
2.4755,0.302277,
2.476,0.133057,
2.4765,-0.0108337,
2.477,0.225067,
2.4775,0.384064,
2.478,0.08255,
2.4785,-0.200043,
2.479,-0.109406,
2.4795,0.0418091,
2.48,0.122528,
2.4805,0.113831,
2.481,-0.266266,
2.4815,-0.897827,
2.482,-1.2265,
2.4825,-1.02661,
2.483,-0.638123,
2.4835,-0.418243,
2.484,-0.326538,
2.4845,-0.163422,
2.485,0.0747681,
2.4855,0.252228,
2.486,0.256653,
2.4865,0.125885,
2.487,-0.0566101,
2.4875,-0.138702,
2.488,-0.0556946,
2.4885,0.00396729,
2.489,-0.108643,
2.4895,-0.228119,
2.49,-0.0556946,
2.4905,0.286407,
2.491,0.492249,
2.4915,0.597229,
2.492,0.727692,
2.4925,0.776978,
2.493,0.666809,
2.4935,0.407715,
2.494,-0.0575256,
2.4945,-0.817261,
2.495,-1.44196,
2.4955,-1.33896,
2.496,-0.761566,
2.4965,-0.326233,
2.497,-0.0881958,
2.4975,0.0593567,
2.498,0.182495,
2.4985,0.297546,
2.499,0.374603,
2.4995,0.402069,
2.5,0.369568,
2.5005,0.26123,
2.501,0.167694,
2.5015,0.178986,
2.502,0.184479,
2.5025,0.13031,
2.503,0.0984192,
2.5035,0.109863,
2.504,0.191803,
2.5045,0.326233,
2.505,0.411224,
2.5055,0.35553,
2.506,0.0840759,
2.5065,-0.17868,
2.507,-0.127716,
2.5075,0.0485229,
2.508,0.0720215,
2.5085,0.0646973,
2.509,0.0996399,
2.5095,0.0260925,
2.51,-0.191956,
2.5105,-0.353546,
2.511,-0.217133,
2.5115,0.0848389,
2.512,0.272064,
2.5125,0.40741,
2.513,0.563965,
2.5135,0.627899,
2.514,0.579529,
2.5145,0.544128,
2.515,0.568695,
2.5155,0.475006,
2.516,0.155487,
2.5165,-0.281219,
2.517,-0.817719,
2.5175,-1.25061,
2.518,-1.14212,
2.5185,-0.67337,
2.519,-0.317993,
2.5195,-0.167694,
2.52,-0.0143433,
2.5205,0.253296,
2.521,0.535583,
2.5215,0.665741,
2.522,0.654144,
2.5225,0.66864,
2.523,0.723114,
2.5235,0.647125,
2.524,0.36499,
2.5245,0.0904846,
2.525,0.125122,
2.5255,0.398407,
2.526,0.43808,
2.5265,-0.0274658,
2.527,-0.526123,
2.5275,-0.518646,
2.528,-0.325165,
2.5285,-0.279083,
2.529,-0.480042,
2.5295,-1.0965,
2.53,-1.80069,
2.5305,-2.03796,
2.531,-1.58264,
2.5315,-0.886536,
2.532,-0.383759,
2.5325,-0.128784,
2.533,-0.00137329,
2.5335,0.0610352,
2.534,0.090332,
2.5345,0.108032,
2.535,0.126038,
2.5355,0.151062,
2.536,0.153198,
2.5365,0.0914001,
2.537,0.00106812,
2.5375,-0.0453186,
2.538,0.00457764,
2.5385,0.165253,
2.539,0.355682,
2.5395,0.422821,
2.54,0.326843,
2.5405,0.207367,
2.541,0.385284,
2.5415,0.760956,
2.542,0.972595,
2.5425,0.896149,
2.543,0.426788,
2.5435,-0.314484,
2.544,-0.757294,
2.5445,-0.616455,
2.545,-0.131836,
2.5455,0.136414,
2.546,-0.140228,
2.5465,-0.685883,
2.547,-0.852203,
2.5475,-0.41153,
2.548,0.163116,
2.5485,0.392761,
2.549,0.289459,
2.5495,0.107422,
2.55,-0.00488281,
2.5505,0.0297546,
2.551,0.144348,
2.5515,0.188751,
2.552,0.116272,
2.5525,-0.0364685,
2.553,-0.172119,
2.5535,-0.194244,
2.554,-0.0840759,
2.5545,0.0778198,
2.555,0.225983,
2.5555,0.339661,
2.556,0.456696,
2.5565,0.595398,
2.557,0.617065,
2.5575,0.537567,
2.558,0.461731,
2.5585,0.402832,
2.559,0.305328,
2.5595,0.0982666,
2.56,-0.182037,
2.5605,-0.290222,
2.561,-0.150757,
2.5615,-0.0840759,
2.562,-0.188293,
2.5625,-0.255432,
2.563,-0.210571,
2.5635,-0.107727,
2.564,0.017395,
2.5645,0.166016,
2.565,0.278931,
2.5655,0.35965,
2.566,0.481262,
2.5665,0.544434,
2.567,0.482483,
2.5675,0.462646,
2.568,0.493469,
2.5685,0.328674,
2.569,-0.154724,
2.5695,-0.558167,
2.57,-0.500031,
2.5705,-0.303802,
2.571,-0.435944,
2.5715,-0.78537,
2.572,-0.869904,
2.5725,-0.662994,
2.573,-0.446472,
2.5735,-0.302582,
2.574,-0.19104,
2.5745,-0.111847,
2.575,-0.0427246,
2.5755,0.00473022,
2.576,-0.0152588,
2.5765,-0.107269,
2.577,-0.218964,
2.5775,-0.296173,
2.578,-0.259552,
2.5785,-0.0915527,
2.579,0.0979614,
2.5795,0.198059,
2.58,0.228424,
2.5805,0.333252,
2.581,0.537109,
2.5815,0.651855,
2.582,0.502014,
2.5825,0.147858,
2.583,0.0160217,
2.5835,0.0300598,
2.584,-0.120544,
2.5845,-0.315247,
2.585,-0.503693,
2.5855,-0.805054,
2.586,-0.962372,
2.5865,-0.612946,
2.587,0.075531,
2.5875,0.684204,
2.588,0.834045,
2.5885,0.594788,
2.589,0.3508,
2.5895,0.12558,
2.59,-0.13092,
2.5905,-0.210571,
2.591,-0.128021,
2.5915,-0.136719,
2.592,-0.221863,
2.5925,-0.154724,
2.593,0.246887,
2.5935,0.682983,
2.594,0.771942,
2.5945,0.592804,
2.595,0.354919,
2.5955,0.165253,
2.596,0.149231,
2.5965,0.28595,
2.597,0.322418,
2.5975,0.148926,
2.598,-0.230408,
2.5985,-0.511475,
2.599,-0.474396,
2.5995,-0.318909,
2.6,-0.277252,
2.6005,-0.201874,
2.601,-0.0993347,
2.6015,-0.13916,
2.602,-0.151062,
2.6025,-0.209351,
2.603,-0.339966,
2.6035,-0.328064,
2.604,-0.236359,
2.6045,-0.25589,
2.605,-0.359192,
2.6055,-0.396271,
2.606,-0.322113,
2.6065,-0.119629,
2.607,0.190887,
2.6075,0.392609,
2.608,0.37323,
2.6085,0.261993,
2.609,0.297546,
2.6095,0.461731,
2.61,0.580597,
2.6105,0.496674,
2.611,0.102997,
2.6115,-0.164948,
2.612,-0.111389,
2.6125,-0.0799561,
2.613,-0.0283813,
2.6135,0.0944519,
2.614,-0.14679,
2.6145,-0.801239,
2.615,-1.12778,
2.6155,-0.630951,
2.616,0.0671387,
2.6165,0.272369,
2.617,0.137329,
2.6175,0.0401306,
2.618,-0.0811768,
2.6185,-0.353394,
2.619,-0.499878,
2.6195,-0.301514,
2.62,0.0192261,
2.6205,0.133057,
2.621,0.0604248,
2.6215,-0.000915527,
2.622,0.121765,
2.6225,0.280151,
2.623,0.251923,
2.6235,0.0491333,
2.624,-0.0508118,
2.6245,-0.0163269,
2.625,-0.00854492,
2.6255,-0.0257874,
2.626,-0.153046,
2.6265,-0.352478,
2.627,-0.35965,
2.6275,-0.0488281,
2.628,0.295868,
2.6285,0.449829,
2.629,0.52475,
2.6295,0.592957,
2.63,0.580902,
2.6305,0.372772,
2.631,0.168152,
2.6315,0.233154,
2.632,0.450592,
2.6325,0.508575,
2.633,0.196075,
2.6335,-0.19455,
2.634,-0.253754,
2.6345,-0.0308228,
2.635,0.164337,
2.6355,0.0842285,
2.636,-0.370941,
2.6365,-0.854034,
2.637,-0.926056,
2.6375,-0.586548,
2.638,-0.219269,
2.6385,-0.0697327,
2.639,-0.00595093,
2.6395,0.0611877,
2.64,0.0149536,
2.6405,-0.0341797,
2.641,0.0856018,
2.6415,0.345764,
2.642,0.54718,
2.6425,0.506287,
2.643,0.306549,
2.6435,0.242004,
2.644,0.328674,
2.6445,0.306854,
2.645,0.179443,
2.6455,-0.0227356,
2.646,-0.393372,
2.6465,-0.567474,
2.647,-0.370026,
2.6475,-0.140686,
2.648,-0.0746155,
2.6485,-0.0839233,
2.649,-0.0796509,
2.6495,-0.0341797,
2.65,0.0163269,
2.6505,0.0405884,
2.651,-0.0872803,
2.6515,-0.282745,
2.652,-0.288086,
2.6525,-0.147247,
2.653,-0.0280762,
2.6535,0.0387573,
2.654,0.0788879,
2.6545,0.103912,
2.655,0.110626,
2.6555,0.160675,
2.656,0.326233,
2.6565,0.473938,
2.657,0.492859,
2.6575,0.413361,
2.658,0.29892,
2.6585,0.22583,
2.659,0.233612,
2.6595,0.215149,
2.66,0.0588989,
2.6605,-0.261383,
2.661,-0.636292,
2.6615,-0.782471,
2.662,-0.528564,
2.6625,-0.207825,
2.663,-0.116119,
2.6635,-0.158234,
2.664,-0.116425,
2.6645,0.0566101,
2.665,0.209961,
2.6655,0.135193,
2.666,-0.135651,
2.6665,-0.353394,
2.667,-0.243378,
2.6675,0.0616455,
2.668,0.239716,
2.6685,0.327301,
2.669,0.503845,
2.6695,0.634308,
2.67,0.596466,
2.6705,0.446472,
2.671,0.180359,
2.6715,-0.267792,
2.672,-0.756683,
2.6725,-0.886688,
2.673,-0.64743,
2.6735,-0.374451,
2.674,-0.289612,
2.6745,-0.394135,
2.675,-0.486755,
2.6755,-0.372772,
2.676,-0.194702,
2.6765,-0.0747681,
2.677,0.0357056,
2.6775,0.123291,
2.678,0.196381,
2.6785,0.310059,
2.679,0.430298,
2.6795,0.441437,
2.68,0.336609,
2.6805,0.216064,
2.681,0.119629,
2.6815,0.0239563,
2.682,-0.0518799,
2.6825,-0.0642395,
2.683,-0.00106812,
2.6835,0.112762,
2.684,0.204926,
2.6845,0.238037,
2.685,0.109253,
2.6855,-0.198517,
2.686,-0.420532,
2.6865,-0.499725,
2.687,-0.416565,
2.6875,-0.157318,
2.688,0.145569,
2.6885,0.306244,
2.689,0.20813,
2.6895,0.187378,
2.69,0.453796,
2.6905,0.708771,
2.691,0.687103,
2.6915,0.461731,
2.692,0.174408,
2.6925,-0.0245667,
2.693,-0.0222778,
2.6935,-0.0244141,
2.694,-0.226746,
2.6945,-0.36026,
2.695,-0.240784,
2.6955,-0.220184,
2.696,-0.307159,
2.6965,-0.185699,
2.697,0.0904846,
2.6975,0.31189,
2.698,0.497131,
2.6985,0.661316,
2.699,0.622406,
2.6995,0.276794,
2.7,0.0579834,
2.7005,0.191345,
2.701,0.35614,
2.7015,0.259247,
2.702,0.01297,
2.7025,-0.270081,
2.703,-0.734558,
2.7035,-1.31012,
2.704,-1.41495,
2.7045,-0.995941,
2.705,-0.670166,
2.7055,-0.578308,
2.706,-0.331879,
2.7065,0.172119,
2.707,0.646362,
2.7075,0.875854,
2.708,0.871735,
2.7085,0.698853,
2.709,0.397186,
2.7095,0.0215149,
2.71,-0.330811,
2.7105,-0.522461,
2.711,-0.56839,
2.7115,-0.657196,
2.712,-0.779419,
2.7125,-0.698242,
2.713,-0.388947,
2.7135,-0.0741577,
2.714,0.124054,
2.7145,0.198975,
2.715,0.169525,
2.7155,0.111237,
2.716,0.157776,
2.7165,0.290375,
2.717,0.338135,
2.7175,0.223083,
2.718,0.0190735,
2.7185,-0.0672913,
2.719,0.01297,
2.7195,0.153656,
2.72,0.149536,
2.7205,-0.0242615,
2.721,0.0566101,
2.7215,0.479889,
2.722,0.741882,
2.7225,0.58197,
2.723,0.338593,
2.7235,0.195007,
2.724,0.176697,
2.7245,0.187683,
2.725,-0.00610352,
2.7255,-0.483093,
2.726,-0.897675,
2.7265,-0.95932,
2.727,-0.714874,
2.7275,-0.452576,
2.728,-0.286713,
2.7285,-0.155792,
2.729,-0.0634766,
2.7295,-0.0050354,
2.73,0.0683594,
2.7305,0.152588,
2.731,0.193939,
2.7315,0.286407,
2.732,0.467987,
2.7325,0.593262,
2.733,0.475311,
2.7335,0.0210571,
2.734,-0.519409,
2.7345,-0.668945,
2.735,-0.402985,
2.7355,-0.0849915,
2.736,0.102539,
2.7365,0.202789,
2.737,0.237274,
2.7375,0.179443,
2.738,0.113678,
2.7385,0.119019,
2.739,0.157166,
2.7395,0.148468,
2.74,0.0614929,
2.7405,-0.0117493,
2.741,-0.0175476,
2.7415,0.0038147,
2.742,0.00198364,
2.7425,-0.0260925,
2.743,-0.0671387,
2.7435,-0.0712585,
2.744,-0.115051,
2.7445,-0.146027,
2.745,0.00213623,
2.7455,0.317078,
2.746,0.561829,
2.7465,0.518951,
2.747,0.267487,
2.7475,0.148468,
2.748,0.166626,
2.7485,0.13916,
2.749,0.105438,
2.7495,0.0679016,
2.75,-0.0376892,
2.7505,-0.258636,
2.751,-0.463867,
2.7515,-0.415497,
2.752,-0.182495,
2.7525,-0.0469971,
2.753,-0.0125122,
2.7535,0.0283813,
2.754,0.17395,
2.7545,0.383911,
2.755,0.562134,
2.7555,0.504608,
2.756,0.067749,
2.7565,-0.383453,
2.757,-0.605774,
2.7575,-0.798187,
2.758,-0.912476,
2.7585,-0.728149,
2.759,-0.375366,
2.7595,-0.078125,
2.76,0.0791931,
2.7605,0.141144,
2.761,0.153351,
2.7615,0.114288,
2.762,0.0544739,
2.7625,0.012207,
2.763,-0.0151062,
2.7635,-0.0282288,
2.764,-0.0151062,
2.7645,0.00808716,
2.765,0.0108337,
2.7655,0.00579834,
2.766,0.0112915,
2.7665,0.062561,
2.767,0.00442505,
2.7675,-0.136414,
2.768,-0.0973511,
2.7685,0.111084,
2.769,0.218658,
2.7695,0.148926,
2.77,0.0627136,
2.7705,0.0447083,
2.771,0.0495911,
2.7715,0.0628662,
2.772,0.0813293,
2.7725,0.140991,
2.773,0.226593,
2.7735,0.270996,
2.774,0.264893,
2.7745,0.250702,
2.775,0.263062,
2.7755,0.258636,
2.776,0.16922,
2.7765,0.0283813,
2.777,-0.0488281,
2.7775,-0.0915527,
2.778,-0.13092,
2.7785,-0.134277,
2.779,-0.117188,
2.7795,-0.0511169,
2.78,0.0489807,
2.7805,0.0610352,
2.781,0.0187683,
2.7815,0.0286865,
2.782,0.0793457,
2.7825,0.0376892,
2.783,-0.0212097,
2.7835,0.0175476,
2.784,0.149841,
2.7845,0.315857,
2.785,0.33432,
2.7855,0.0669861,
2.786,-0.299835,
2.7865,-0.438538,
2.787,-0.403137,
2.7875,-0.354767,
2.788,-0.100403,
2.7885,0.276184,
2.789,0.415039,
2.7895,0.254211,
2.79,0.0466919,
2.7905,0.00823975,
2.791,0.105896,
2.7915,0.188141,
2.792,0.0628662,
2.7925,-0.246429,
2.793,-0.4953,
2.7935,-0.537109,
2.794,-0.593414,
2.7945,-0.664978,
2.795,-0.524902,
2.7955,-0.228119,
2.796,0.0695801,
2.7965,0.292053,
2.797,0.37735,
2.7975,0.309448,
2.798,0.206299,
2.7985,0.127563,
2.799,-0.0236511,
2.7995,-0.165558,
2.8,-0.432587,
2.8005,-0.815277,
2.801,-0.855103,
2.8015,-0.607452,
2.802,-0.402222,
2.8025,-0.203247,
2.803,0.0692749,
2.8035,0.337067,
2.804,0.504913,
2.8045,0.666809,
2.805,0.776672,
2.8055,0.641022,
2.806,0.392303,
2.8065,0.254517,
2.807,0.206146,
2.8075,0.0257874,
2.808,-0.242767,
2.8085,-0.259857,
2.809,-0.0402832,
2.8095,0.223389,
2.81,0.33844,
2.8105,0.265503,
2.811,0.152435,
2.8115,0.0709534,
2.812,-0.0822449,
2.8125,-0.321503,
2.813,-0.452271,
2.8135,-0.360413,
2.814,-0.186768,
2.8145,-0.0595093,
2.815,0.00549316,
2.8155,0.0386047,
2.816,0.112457,
2.8165,0.209961,
2.817,0.266113,
2.8175,0.25116,
2.818,0.250244,
2.8185,0.240936,
2.819,0.00900269,
2.8195,-0.38147,
2.82,-0.498199,
2.8205,-0.259399,
2.821,-0.0132751,
2.8215,0.0646973,
2.822,0.0526428,
2.8225,0.0184631,
2.823,-0.0630188,
2.8235,-0.135498,
2.824,-0.142517,
2.8245,-0.0932312,
2.825,0.00289917,
2.8255,0.160217,
2.826,0.301514,
2.8265,0.427856,
2.827,0.597687,
2.8275,0.875244,
2.828,1.11374,
2.8285,1.09756,
2.829,0.793152,
2.8295,0.335693,
2.83,-0.224457,
2.8305,-0.791016,
2.831,-1.23459,
2.8315,-1.37802,
2.832,-1.10001,
2.8325,-0.45929,
2.833,0.153351,
2.8335,0.422363,
2.834,0.475311,
2.8345,0.301971,
2.835,-0.172119,
2.8355,-0.701141,
2.836,-0.962524,
2.8365,-0.776672,
2.837,-0.261688,
2.8375,0.100403,
2.838,0.0309753,
2.8385,-0.128021,
2.839,-0.0663757,
2.8395,0.0547791,
2.84,0.0370789,
2.8405,-0.0923157,
2.841,-0.160828,
2.8415,-0.150299,
2.842,-0.158081,
2.8425,-0.153046,
2.843,-0.0337219,
2.8435,0.139771,
2.844,0.218201,
2.8445,0.132446,
2.845,-0.0521851,
2.8455,-0.164337,
2.846,-0.109253,
2.8465,0.112457,
2.847,0.234985,
2.8475,0.21759,
2.848,0.311584,
2.8485,0.43457,
2.849,0.408325,
2.8495,0.328369,
2.85,0.304565,
2.8505,0.257874,
2.851,0.105133,
2.8515,-0.0486755,
2.852,-0.0846863,
2.8525,-0.0439453,
2.853,0.0274658,
2.8535,0.0984192,
2.854,0.105591,
2.8545,0.0827026,
2.855,0.0370789,
2.8555,-0.0749207,
2.856,-0.186768,
2.8565,-0.237579,
2.857,-0.270691,
2.8575,-0.232239,
2.858,-0.119324,
2.8585,-0.0959778,
2.859,-0.202637,
2.8595,-0.275116,
2.86,-0.26474,
2.8605,-0.200653,
2.861,0.123596,
2.8615,0.565796,
2.862,0.74646,
2.8625,0.694733,
2.863,0.601959,
2.8635,0.463867,
2.864,0.347595,
2.8645,0.358582,
2.865,0.235138,
2.8655,-0.161133,
2.866,-0.432434,
2.8665,-0.332947,
2.867,-0.206604,
2.8675,-0.337677,
2.868,-0.51239,
2.8685,-0.549164,
2.869,-0.603027,
2.8695,-0.615692,
2.87,-0.43335,
2.8705,-0.231781,
2.871,-0.141296,
2.8715,-0.107574,
2.872,-0.0335693,
2.8725,0.0689697,
2.873,0.147705,
2.8735,0.261841,
2.874,0.342712,
2.8745,0.363464,
2.875,0.350647,
2.8755,0.314026,
2.876,0.243835,
2.8765,0.14801,
2.877,0.19104,
2.8775,0.276184,
2.878,0.0671387,
2.8785,-0.346222,
2.879,-0.552521,
2.8795,-0.505981,
2.88,-0.335083,
2.8805,-0.0848389,
2.881,0.0128174,
2.8815,-0.0933838,
2.882,-0.1474,
2.8825,-0.0611877,
2.883,0.0733948,
2.8835,0.114899,
2.884,0.0718689,
2.8845,0.0378418,
2.885,0.03479,
2.8855,0.0375366,
2.886,0.0442505,
2.8865,0.0540161,
2.887,0.0505066,
2.8875,0.0398254,
2.888,0.0578308,
2.8885,0.1091,
2.889,0.155182,
2.8895,0.184631,
2.89,0.207214,
2.8905,0.216522,
2.891,0.136719,
2.8915,-0.0289917,
2.892,-0.0569153,
2.8925,0.0390625,
2.893,-0.0296021,
2.8935,-0.157776,
2.894,-0.149536,
2.8945,-0.0706482,
2.895,-0.0415039,
2.8955,-0.039978,
2.896,-0.0401306,
2.8965,-0.0367737,
2.897,0.00930786,
2.8975,0.111389,
2.898,0.195923,
2.8985,0.189209,
2.899,0.110779,
2.8995,0.080719,
2.9,0.187225,
2.9005,0.29892,
2.901,0.243073,
2.9015,-0.0611877,
2.902,-0.485382,
2.9025,-0.766296,
2.903,-0.712128,
2.9035,-0.343323,
2.904,0.0605774,
2.9045,0.318451,
2.905,0.405731,
2.9055,0.448914,
2.906,0.561218,
2.9065,0.649109,
2.907,0.487366,
2.9075,0.0520325,
2.908,-0.368652,
2.9085,-0.444794,
2.909,-0.335083,
2.9095,-0.426636,
2.91,-0.524597,
2.9105,-0.310669,
2.911,-0.0354004,
2.9115,0.0253296,
2.912,-0.019989,
2.9125,-0.0532532,
2.913,-0.1828,
2.9135,-0.317078,
2.914,-0.294037,
2.9145,-0.205078,
2.915,-0.102997,
2.9155,0.070343,
2.916,0.317841,
2.9165,0.515594,
2.917,0.545807,
2.9175,0.440063,
2.918,0.408325,
2.9185,0.431061,
2.919,0.24704,
2.9195,-0.139313,
2.92,-0.257874,
2.9205,-0.0801086,
2.921,0.0444031,
2.9215,-0.0959778,
2.922,-0.513611,
2.9225,-0.630341,
2.923,-0.321808,
2.9235,-0.131989,
2.924,-0.101166,
2.9245,-0.0405884,
2.925,0.0202942,
2.9255,-0.142517,
2.926,-0.392456,
2.9265,-0.314026,
2.927,0.0178528,
2.9275,0.183105,
2.928,0.14328,
2.9285,0.122375,
2.929,0.17395,
2.9295,0.191345,
2.93,0.136108,
2.9305,0.0546265,
2.931,0,
2.9315,0.0386047,
2.932,0.163269,
2.9325,0.254364,
2.933,0.207214,
2.9335,0.0689697,
2.934,-0.0204468,
2.9345,0.0201416,
2.935,0.0970459,
2.9355,0.104828,
2.936,0.0804138,
2.9365,0.144806,
2.937,0.237274,
2.9375,0.227051,
2.938,0.0889587,
2.9385,-0.134125,
2.939,-0.253601,
2.9395,-0.241547,
2.94,-0.198822,
2.9405,-0.146027,
2.941,-0.186768,
2.9415,-0.279541,
2.942,-0.210876,
2.9425,-0.0973511,
2.943,-0.156097,
2.9435,-0.262604,
2.944,-0.166016,
2.9445,0.0344849,
2.945,0.0958252,
2.9455,-0.0532532,
2.946,-0.291443,
2.9465,-0.407867,
2.947,-0.314331,
2.9475,-0.0886536,
2.948,0.101929,
2.9485,0.157013,
2.949,0.129852,
2.9495,0.129395,
2.95,0.191956,
2.9505,0.269928,
2.951,0.315399,
2.9515,0.331726,
2.952,0.363007,
2.9525,0.384521,
2.953,0.312958,
2.9535,0.0912476,
2.954,-0.212708,
2.9545,-0.408325,
2.955,-0.34729,
2.9555,-0.166626,
2.956,-0.0363159,
2.9565,0.0370789,
2.957,0.0918579,
2.9575,0.135193,
2.958,0.138855,
2.9585,0.0840759,
2.959,0.0088501,
2.9595,-0.057373,
2.96,-0.106506,
2.9605,-0.120544,
2.961,-0.0874329,
2.9615,-0.0337219,
2.962,-0.00808716,
2.9625,0.000152588,
2.963,0.0447083,
2.9635,0.107574,
2.964,0.106659,
2.9645,0.0634766,
2.965,0.0180054,
2.9655,-0.0233459,
2.966,-0.0765991,
2.9665,-0.125732,
2.967,-0.130768,
2.9675,-0.142365,
2.968,-0.130005,
2.9685,-0.0366211,
2.969,0.0761414,
2.9695,0.208588,
2.97,0.339813,
2.9705,0.390472,
2.971,0.326385,
2.9715,0.218048,
2.972,0.21637,
2.9725,0.33371,
2.973,0.36911,
2.9735,0.186157,
2.974,-0.0662231,
2.9745,-0.272827,
2.975,-0.194702,
2.9755,0.155029,
2.976,0.447235,
2.9765,0.605469,
2.977,0.627899,
2.9775,0.514221,
2.978,0.393829,
2.9785,0.285645,
2.979,0.169373,
2.9795,0.14679,
2.98,0.000762939,
2.9805,-0.445404,
2.981,-0.823517,
2.9815,-0.843811,
2.982,-0.736847,
2.9825,-0.671539,
2.983,-0.516357,
2.9835,-0.352325,
2.984,-0.326691,
2.9845,-0.425262,
2.985,-0.463409,
2.9855,-0.392303,
2.986,-0.269775,
2.9865,-0.14679,
2.987,-0.0947571,
2.9875,-0.0650024,
2.988,-0.0498962,
2.9885,-0.115662,
2.989,-0.19455,
2.9895,-0.165253,
2.99,-0.0790405,
2.9905,-0.0315857,
2.991,-0.0120544,
2.9915,0.0489807,
2.992,0.128479,
2.9925,0.17395,
2.993,0.166931,
2.9935,0.0970459,
2.994,-0.00274658,
2.9945,-0.0587463,
2.995,-0.0460815,
2.9955,-0.0440979,
2.996,-0.0985718,
2.9965,-0.116119,
2.997,-0.0665283,
2.9975,-0.01297,
2.998,0.0114441,
2.9985,0.0379944,
2.999,0.118713,
2.9995,0.198212,
3,0.148315,
3.0005,0.0239563,
3.001,-0.042572,
3.0015,-0.102234,
3.002,-0.196228,
3.0025,-0.266724,
3.003,-0.263672,
3.0035,-0.208435,
3.004,-0.163422,
3.0045,-0.141907,
3.005,-0.0787354,
3.0055,0.0393677,
3.006,0.158234,
3.0065,0.285187,
3.007,0.385437,
3.0075,0.401459,
3.008,0.400085,
3.0085,0.406342,
3.009,0.39978,
3.0095,0.369568,
3.01,0.279388,
3.0105,0.181885,
3.011,0.135193,
3.0115,0.085144,
3.012,-0.0453186,
3.0125,-0.262756,
3.013,-0.363007,
3.0135,-0.299225,
3.014,-0.188751,
3.0145,0.0720215,
3.015,0.50827,
3.0155,0.850067,
3.016,0.990448,
3.0165,1.08047,
3.017,1.15295,
3.0175,1.02219,
3.018,0.631104,
3.0185,0.236664,
3.019,-0.130157,
3.0195,-0.236206,
3.02,0.0932312,
3.0205,0.142975,
3.021,-0.252838,
3.0215,-0.605011,
3.022,-0.722504,
3.0225,-0.701752,
3.023,-0.70343,
3.0235,-0.775604,
3.024,-0.80658,
3.0245,-0.762634,
3.025,-0.621185,
3.0255,-0.402832,
3.026,-0.179596,
3.0265,0.00534058,
3.027,0.0656128,
3.0275,0.0363159,
3.028,-0.156555,
3.0285,-0.497437,
3.029,-0.678101,
3.0295,-0.499268,
3.03,-0.0923157,
3.0305,0.169983,
3.031,0.175018,
3.0315,0.0967407,
3.032,0.0306702,
3.0325,-0.0518799,
3.033,-0.185242,
3.0335,-0.300598,
3.034,-0.29892,
3.0345,-0.232544,
3.035,-0.190735,
3.0355,-0.126038,
3.036,0.0123596,
3.0365,0.214233,
3.037,0.4776,
3.0375,0.625763,
3.038,0.554962,
3.0385,0.427704,
3.039,0.366516,
3.0395,0.343781,
3.04,0.349121,
3.0405,0.384674,
3.041,0.376434,
3.0415,0.29953,
3.042,0.207214,
3.0425,0.13443,
3.043,0.139008,
3.0435,0.201874,
3.044,0.316925,
3.0445,0.387878,
3.045,0.226593,
3.0455,0.122986,
3.046,0.236664,
3.0465,0.235596,
3.047,-0.0596619,
3.0475,-0.527954,
3.048,-0.943604,
3.0485,-1.12869,
3.049,-0.999756,
3.0495,-0.665741,
3.05,-0.30304,
3.0505,-0.0727844,
3.051,-0.093689,
3.0515,-0.273132,
3.052,-0.399017,
3.0525,-0.393524,
3.053,-0.354004,
3.0535,-0.324097,
3.054,-0.226593,
3.0545,-0.0648499,
3.055,0.0689697,
3.0555,0.149384,
3.056,0.23468,
3.0565,0.308228,
3.057,0.319366,
3.0575,0.275421,
3.058,0.198669,
3.0585,0.0683594,
3.059,-0.0286865,
3.0595,0.0756836,
3.06,0.229645,
3.0605,0.216675,
3.061,0.0982666,
3.0615,0.0170898,
3.062,0.0244141,
3.0625,0.0709534,
3.063,0.101013,
3.0635,0.120239,
3.064,0.178986,
3.0645,0.264893,
3.065,0.284882,
3.0655,0.250549,
3.066,0.257721,
3.0665,0.335083,
3.067,0.376129,
3.0675,0.331116,
3.068,0.231476,
3.0685,0.0971985,
3.069,-0.058136,
3.0695,-0.0654602,
3.07,-0.0117493,
3.0705,-0.0596619,
3.071,-0.13031,
3.0715,-0.0842285,
3.072,0.06073,
3.0725,0.10849,
3.073,-0.138245,
3.0735,-0.428314,
3.074,-0.505066,
3.0745,-0.416412,
3.075,-0.175323,
3.0755,-0.052948,
3.076,-0.0741577,
3.0765,0.065155,
3.077,0.226593,
3.0775,0.174713,
3.078,0.120087,
3.0785,0.210419,
3.079,0.269623,
3.0795,0.203857,
3.08,0.119629,
3.0805,0.0958252,
3.081,0.0450134,
3.0815,-0.0483704,
3.082,-0.144348,
3.0825,-0.263824,
3.083,-0.387573,
3.0835,-0.349731,
3.084,-0.138245,
3.0845,0.0616455,
3.085,0.160828,
3.0855,0.151825,
3.086,0.102844,
3.0865,0.0619507,
3.087,0.0244141,
3.0875,-0.0143433,
3.088,-0.0538635,
3.0885,-0.124054,
3.089,-0.270844,
3.0895,-0.431061,
3.09,-0.423431,
3.0905,-0.194855,
3.091,0.0627136,
3.0915,0.162506,
3.092,0.108032,
3.0925,-0.0108337,
3.093,-0.131531,
3.0935,-0.18692,
3.094,-0.128784,
3.0945,0.00198364,
3.095,0.0605774,
3.0955,0.043335,
3.096,0.0959778,
3.0965,0.215607,
3.097,0.332947,
3.0975,0.471344,
3.098,0.651703,
3.0985,0.61615,
3.099,0.391998,
3.0995,0.36026,
3.1,0.379791,
3.1005,0.118256,
3.101,-0.112152,
3.1015,-0.0730896,
3.102,-0.18692,
3.1025,-0.816803,
3.103,-1.4328,
3.1035,-1.4534,
3.104,-0.966339,
3.1045,-0.438538,
3.105,-0.206757,
3.1055,-0.118866,
3.106,0.0614929,
3.1065,0.285034,
3.107,0.427094,
3.1075,0.470734,
3.108,0.469055,
3.1085,0.478668,
3.109,0.467834,
3.1095,0.407257,
3.11,0.352783,
3.1105,0.335846,
3.111,0.330658,
3.1115,0.296631,
3.112,0.258789,
3.1125,0.230865,
3.113,0.0601196,
3.1135,-0.345917,
3.114,-0.621338,
3.1145,-0.510101,
3.115,-0.28244,
3.1155,-0.164185,
3.116,-0.12619,
3.1165,-0.093689,
3.117,-0.0660706,
3.1175,-0.0308228,
3.118,-0.0236511,
3.1185,-0.171356,
3.119,-0.385437,
3.1195,-0.267487,
3.12,0.238495,
3.1205,0.680084,
3.121,0.699615,
3.1215,0.470886,
3.122,0.411377,
3.1225,0.526733,
3.123,0.557251,
3.1235,0.371094,
3.124,-0.0180054,
3.1245,-0.36026,
3.125,-0.260315,
3.1255,0.0767517,
3.126,0.236359,
3.1265,0.189972,
3.127,0.059967,
3.1275,-0.188599,
3.128,-0.431519,
3.1285,-0.452118,
3.129,-0.320282,
3.1295,-0.20401,
3.13,-0.0874329,
3.1305,0.141754,
3.131,0.348053,
3.1315,0.322266,
3.132,0.13092,
3.1325,-0.0875854,
3.133,-0.305481,
3.1335,-0.650177,
3.134,-1.19553,
3.1345,-1.37985,
3.135,-0.91217,
3.1355,-0.314636,
3.136,-0.0866699,
3.1365,-0.15274,
3.137,-0.206757,
3.1375,-0.146332,
3.138,-0.0518799,
3.1385,0.0221252,
3.139,0.0537109,
3.1395,0.0442505,
3.14,0.0582886,
3.1405,0.106659,
3.141,0.129395,
3.1415,0.111084,
3.142,0.0999451,
3.1425,0.113373,
3.143,0.109558,
3.1435,0.070343,
3.144,0.0408936,
3.1445,0.058136,
3.145,0.10788,
3.1455,0.152283,
3.146,0.147095,
3.1465,0.106354,
3.147,0.0665283,
3.1475,0.0572205,
3.148,0.0769043,
3.1485,0.101318,
3.149,0.108337,
3.1495,0.108032,
3.15,0.136871,
3.1505,0.193634,
3.151,0.229797,
3.1515,0.233765,
3.152,0.20874,
3.1525,0.14679,
3.153,0.0793457,
3.1535,0.0279236,
3.154,0.00167847,
3.1545,-0.0105286,
3.155,-0.00579834,
3.1555,0.0134277,
3.156,0.035553,
3.1565,0.0549316,
3.157,0.0697327,
3.1575,0.0856018,
3.158,0.0843811,
3.1585,0.0552368,
3.159,0.0109863,
3.1595,-0.0387573,
3.16,-0.0732422,
3.1605,-0.085907,
3.161,-0.0901794,
3.1615,-0.109406,
3.162,-0.142059,
3.1625,-0.148315,
3.163,-0.0839233,
3.1635,0.035553,
3.164,0.14679,
3.1645,0.176086,
3.165,0.117798,
3.1655,0.0402832,
3.166,-0.0062561,
3.1665,-0.0253296,
3.167,-0.0335693,
3.1675,-0.0376892,
3.168,-0.0157166,
3.1685,0.0390625,
3.169,0.15274,
3.1695,0.376282,
3.17,0.610657,
3.1705,0.679626,
3.171,0.583496,
3.1715,0.391083,
3.172,0.148163,
3.1725,-0.0254822,
3.173,-0.0352478,
3.1735,-0.0872803,
3.174,-0.347748,
3.1745,-0.672607,
3.175,-0.752716,
3.1755,-0.444031,
3.176,-0.0315857,
3.1765,0.0283813,
3.177,-0.371552,
3.1775,-0.697327,
3.178,-0.576782,
3.1785,-0.193939,
3.179,0.0166321,
3.1795,0.00549316,
3.18,0.0128174,
3.1805,0.106049,
3.181,0.193634,
3.1815,0.233307,
3.182,0.211639,
3.1825,0.14267,
3.183,0.078125,
3.1835,0.000610352,
3.184,-0.153351,
3.1845,-0.270538,
3.185,-0.216522,
3.1855,-0.100555,
3.186,-0.0588989,
3.1865,-0.0492859,
3.187,0.00366211,
3.1875,0.116272,
3.188,0.256348,
3.1885,0.348053,
3.189,0.319977,
3.1895,0.124969,
3.19,-0.0852966,
3.1905,-0.17807,
3.191,-0.224762,
3.1915,-0.265808,
3.192,-0.21759,
3.1925,-0.0791931,
3.193,0.0894165,
3.1935,0.269318,
3.194,0.345612,
3.1945,0.248566,
3.195,0.168915,
3.1955,0.212402,
3.196,0.240784,
3.1965,0.096283,
3.197,-0.11795,
3.1975,-0.209351,
3.198,-0.211792,
3.1985,-0.268707,
3.199,-0.282288,
3.1995,-0.140076,
3.2,-0.0349426,
3.2005,-0.0636292,
3.201,-0.116272,
3.2015,-0.131378,
3.202,-0.125275,
3.2025,-0.117188,
3.203,-0.129547,
3.2035,-0.124817,
3.204,-0.0474548,
3.2045,0.0639343,
3.205,0.157318,
3.2055,0.223083,
3.206,0.23941,
3.2065,0.214539,
3.207,0.214081,
3.2075,0.220642,
3.208,0.202942,
3.2085,0.10849,
3.209,0.00167847,
3.2095,0.0906372,
3.21,0.332794,
3.2105,0.469666,
3.211,0.426178,
3.2115,0.320892,
3.212,0.188141,
3.2125,0.0137329,
3.213,-0.220795,
3.2135,-0.542297,
3.214,-0.869904,
3.2145,-0.989227,
3.215,-0.705261,
3.2155,-0.220032,
3.216,0.0740051,
3.2165,0.236816,
3.217,0.365906,
3.2175,0.298309,
3.218,0.0593567,
3.2185,-0.109253,
3.219,-0.0753784,
3.2195,0.172729,
3.22,0.414886,
3.2205,0.421295,
3.221,0.283661,
3.2215,0.111694,
3.222,-0.106049,
3.2225,-0.366669,
3.223,-0.653687,
3.2235,-0.778809,
3.224,-0.616913,
3.2245,-0.325317,
