0,0.000152588,
0.0005,0.00762939,
0.001,0.0154114,
0.0015,0.0195313,
0.002,0.0192261,
0.0025,0.0202942,
0.003,0.0189209,
0.0035,0.0170898,
0.004,0.0105286,
0.0045,-0.00686646,
0.005,-0.0268555,
0.0055,-0.0492859,
0.006,-0.0810242,
0.0065,-0.101166,
0.007,-0.0912476,
0.0075,-0.063324,
0.008,-0.0582886,
0.0085,-0.0822449,
0.009,-0.107422,
0.0095,-0.0871277,
0.01,-0.00274658,
0.0105,0.0691223,
0.011,0.0874329,
0.0115,0.0924683,
0.012,0.0906372,
0.0125,0.0715637,
0.013,0.0534058,
0.0135,0.0453186,
0.014,0.0292969,
0.0145,-0.00350952,
0.015,-0.0283813,
0.0155,-0.0227356,
0.016,0.00320435,
0.0165,0.0131226,
0.017,0.00228882,
0.0175,-0.00549316,
0.018,-0.0062561,
0.0185,-0.00564575,
0.019,0.00274658,
0.0195,0.0166321,
0.02,0.025177,
0.0205,0.0263977,
0.021,0.0244141,
0.0215,0.0213623,
0.022,0.0114441,
0.0225,-0.00213623,
0.023,-0.012207,
0.0235,-0.0144958,
0.024,-0.00534058,
0.0245,0.0109863,
0.025,0.0224304,
0.0255,0.012207,
0.026,-0.0138855,
0.0265,-0.0297546,
0.027,-0.032959,
0.0275,-0.0308228,
0.028,-0.0205994,
0.0285,-0.00640869,
0.029,-0.00778198,
0.0295,-0.0317383,
0.03,-0.055542,
0.0305,-0.0578308,
0.031,-0.0465393,
0.0315,-0.0352478,
0.032,-0.0292969,
0.0325,-0.0250244,
0.033,-0.00793457,
0.0335,0.00915527,
0.034,0.019989,
0.0345,0.0318909,
0.035,0.0485229,
0.0355,0.0759888,
0.036,0.0978088,
0.0365,0.0915527,
0.037,0.0613403,
0.0375,0.0358582,
0.038,0.0212097,
0.0385,0.0137329,
0.039,0.00930786,
0.0395,-0.00762939,
0.04,-0.0285339,
0.0405,-0.0315857,
0.041,-0.0267029,
0.0415,-0.0273132,
0.042,-0.0308228,
0.0425,-0.03479,
0.043,-0.0334167,
0.0435,-0.0447083,
0.044,-0.0679016,
0.0445,-0.0724792,
0.045,-0.0491333,
0.0455,-0.00793457,
0.046,0.0288391,
0.0465,0.0434875,
0.047,0.0390625,
0.0475,0.0245667,
0.048,0.00198364,
0.0485,-0.0213623,
0.049,-0.0273132,
0.0495,-0.0184631,
0.05,-0.00518799,
0.0505,-0.000915527,
0.051,0.00411987,
0.0515,0.0126648,
0.052,0.0244141,
0.0525,0.0450134,
0.053,0.080719,
0.0535,0.104675,
0.054,0.0959778,
0.0545,0.0646973,
0.055,0.0302124,
0.0555,0.0131226,
0.056,0.0241089,
0.0565,0.0480652,
0.057,0.0509644,
0.0575,0.0198364,
0.058,-0.0286865,
0.0585,-0.0604248,
0.059,-0.0823975,
0.0595,-0.124817,
0.06,-0.150909,
0.0605,-0.124969,
0.061,-0.0730896,
0.0615,-0.0346375,
0.062,-0.0117493,
0.0625,-0.000457764,
0.063,0.0012207,
0.0635,0.00854492,
0.064,0.0262451,
0.0645,0.0213623,
0.065,-0.0115967,
0.0655,-0.0363159,
0.066,-0.0361633,
0.0665,-0.0244141,
0.067,-0.0160217,
0.0675,-0.00915527,
0.068,-0.00778198,
0.0685,-0.00595093,
0.069,0.000305176,
0.0695,0.00610352,
0.07,0.00671387,
0.0705,0.00518799,
0.071,0.00289917,
0.0715,0.00335693,
0.072,0.00518799,
0.0725,0.00778198,
0.073,0.00534058,
0.0735,0.00259399,
0.074,0.00335693,
0.0745,0.00335693,
0.075,0.00228882,
0.0755,0.0038147,
0.076,0.00839233,
0.0765,0.00686646,
0.077,0.000457764,
0.0775,-0.00701904,
0.078,-0.0119019,
0.0785,-0.0146484,
0.079,-0.0134277,
0.0795,-0.0100708,
0.08,-0.0062561,
0.0805,-0.00823975,
0.081,-0.010376,
0.0815,-0.0105286,
0.082,-0.00823975,
0.0825,0.00167847,
0.083,0.0177002,
0.0835,0.0285339,
0.084,0.0294495,
0.0845,0.0234985,
0.085,0.0158691,
0.0855,0.0126648,
0.086,0.0190735,
0.0865,0.0257874,
0.087,0.0253296,
0.0875,0.0120544,
0.088,-0.0135803,
0.0885,-0.0418091,
0.089,-0.0424194,
0.0895,-0.0195313,
0.09,-0.00900269,
0.0905,-0.0126648,
0.091,-0.0180054,
0.0915,-0.0202942,
0.092,-0.018158,
0.0925,-0.010376,
0.093,-0.00228882,
0.0935,-0.000762939,
0.094,-0.00106812,
0.0945,-0.0038147,
0.095,-0.00244141,
0.0955,0.00183105,
0.096,0.00350952,
0.0965,0.00427246,
0.097,0.00854492,
0.0975,0.00915527,
0.098,0.00686646,
0.0985,0.00213623,
0.099,0.00137329,
0.0995,0.00457764,
0.1,0.00701904,
0.1005,0.00427246,
0.101,0.00213623,
0.1015,0.00106812,
0.102,-0.00305176,
0.1025,-0.0172424,
0.103,-0.0276184,
0.1035,-0.0234985,
0.104,-0.0288391,
0.1045,-0.0535583,
0.105,-0.0749207,
0.1055,-0.0817871,
0.106,-0.0776672,
0.1065,-0.0697327,
0.107,-0.0592041,
0.1075,-0.0462341,
0.108,-0.0379944,
0.1085,-0.0366211,
0.109,-0.0282288,
0.1095,-0.00732422,
0.11,0.0233459,
0.1105,0.0514221,
0.111,0.0706482,
0.1115,0.0740051,
0.112,0.0668335,
0.1125,0.0750732,
0.113,0.100708,
0.1135,0.10376,
0.114,0.0805664,
0.1145,0.0598145,
0.115,0.0592041,
0.1155,0.0602722,
0.116,0.0489807,
0.1165,0.0320435,
0.117,0.0239563,
0.1175,0.0233459,
0.118,0.0160217,
0.1185,0.00991821,
0.119,0.0143433,
0.1195,0.0125122,
0.12,0.00427246,
0.1205,0.00183105,
0.121,0.0012207,
0.1215,-0.00335693,
0.122,-0.00976563,
0.1225,-0.0134277,
0.123,-0.00808716,
0.1235,0.00778198,
0.124,0.0221252,
0.1245,0.0291443,
0.125,0.0334167,
0.1255,0.0309753,
0.126,0.0108337,
0.1265,-0.0209045,
0.127,-0.0343323,
0.1275,-0.0323486,
0.128,-0.0265503,
0.1285,-0.0234985,
0.129,-0.0227356,
0.1295,-0.0209045,
0.13,-0.015564,
0.1305,-0.00579834,
0.131,0.00228882,
0.1315,-0.00137329,
0.132,-0.0180054,
0.1325,-0.0265503,
0.133,-0.0198364,
0.1335,-0.00915527,
0.134,-0.00686646,
0.1345,-0.0163269,
0.135,-0.020752,
0.1355,-0.0137329,
0.136,-0.0146484,
0.1365,-0.0239563,
0.137,-0.0283813,
0.1375,-0.0204468,
0.138,-0.0123596,
0.1385,-0.0123596,
0.139,-0.0163269,
0.1395,-0.0218201,
0.14,-0.0175476,
0.1405,-0.000457764,
0.141,0.0141907,
0.1415,0.0146484,
0.142,0.00137329,
0.1425,-0.00778198,
0.143,0.0189209,
0.1435,0.065918,
0.144,0.0828552,
0.1445,0.0628662,
0.145,0.0532532,
0.1455,0.0759888,
0.146,0.0947571,
0.1465,0.0854492,
0.147,0.0706482,
0.1475,0.0727844,
0.148,0.0584412,
0.1485,-0.00137329,
0.149,-0.085907,
0.1495,-0.191956,
0.15,-0.306244,
0.1505,-0.353546,
0.151,-0.286713,
0.1515,-0.151825,
0.152,-0.052948,
0.1525,-0.0198364,
0.153,-0.0247192,
0.1535,-0.0227356,
0.154,0.00595093,
0.1545,0.0360107,
0.155,0.0479126,
0.1555,0.0517273,
0.156,0.0547791,
0.1565,0.0447083,
0.157,0.0187683,
0.1575,-0.00946045,
0.158,-0.040741,
0.1585,-0.0828552,
0.159,-0.146027,
0.1595,-0.189667,
0.16,-0.154114,
0.1605,-0.0883484,
0.161,-0.0672913,
0.1615,-0.0750732,
0.162,-0.0666809,
0.1625,-0.0424194,
0.163,-0.0163269,
0.1635,0.0128174,
0.164,0.0671387,
0.1645,0.133209,
0.165,0.167236,
0.1655,0.1651,
0.166,0.148468,
0.1665,0.130005,
0.167,0.103607,
0.1675,0.0764465,
0.168,0.0590515,
0.1685,0.0480652,
0.169,0.0393677,
0.1695,0.0309753,
0.17,0.0213623,
0.1705,0.017395,
0.171,0.0175476,
0.1715,0.0172424,
0.172,0.0180054,
0.1725,0.0167847,
0.173,0.0144958,
0.1735,0.0125122,
0.174,0.00991821,
0.1745,0.00717163,
0.175,0.0050354,
0.1755,0.00534058,
0.176,0.00305176,
0.1765,0.000610352,
0.177,0.00274658,
0.1775,0.00335693,
0.178,0.000610352,
0.1785,-0.000457764,
0.179,0.000457764,
0.1795,0.00106812,
0.18,-0.00152588,
0.1805,-0.00167847,
0.181,-0.0012207,
0.1815,-0.00228882,
0.182,-0.00320435,
0.1825,-0.00534058,
0.183,-0.00549316,
0.1835,-0.0062561,
0.184,-0.00732422,
0.1845,-0.00793457,
0.185,-0.00686646,
0.1855,-0.00427246,
0.186,-0.00335693,
0.1865,-0.00457764,
0.187,-0.00534058,
0.1875,-0.00427246,
0.188,-0.00640869,
0.1885,-0.0062561,
0.189,-0.00762939,
0.1895,-0.00808716,
0.19,-0.0100708,
0.1905,-0.0102234,
0.191,-0.00900269,
0.1915,-0.00732422,
0.192,-0.00930786,
0.1925,-0.0152588,
0.193,-0.0221252,
0.1935,-0.0263977,
0.194,-0.0276184,
0.1945,-0.0260925,
0.195,-0.0228882,
0.1955,-0.0241089,
0.196,-0.0267029,
0.1965,-0.0256348,
0.197,-0.0190735,
0.1975,-0.0135803,
0.198,-0.0111389,
0.1985,-0.00366211,
0.199,0.00976563,
0.1995,0.0227356,
0.2,0.0288391,
0.2005,0.0270081,
0.201,0.015564,
0.2015,0.00839233,
0.202,0.00396729,
0.2025,0.0038147,
0.203,0.00823975,
0.2035,0.0125122,
0.204,0.0149536,
0.2045,0.0146484,
0.205,0.0106812,
0.2055,0.00289917,
0.206,0.00183105,
0.2065,0.00579834,
0.207,0.00640869,
0.2075,0.00198364,
0.208,-0.000762939,
0.2085,-0.00396729,
0.209,-0.00854492,
0.2095,-0.0120544,
0.21,-0.0140381,
0.2105,-0.0137329,
0.211,-0.0125122,
0.2115,-0.00488281,
0.212,0.00259399,
0.2125,0.00274658,
0.213,-0.00137329,
0.2135,0.000457764,
0.214,0.00610352,
0.2145,0.00961304,
0.215,0.00946045,
0.2155,0.00717163,
0.216,0.00488281,
0.2165,0.00289917,
0.217,0.00137329,
0.2175,0,
0.218,-0.00244141,
0.2185,-0.00473022,
0.219,-0.00564575,
0.2195,-0.00595093,
0.22,-0.00778198,
0.2205,-0.00946045,
0.221,-0.00915527,
0.2215,-0.0100708,
0.222,-0.0105286,
0.2225,-0.0117493,
0.223,-0.00640869,
0.2235,-0.000915527,
0.224,0.00274658,
0.2245,0.00350952,
0.225,0.00198364,
0.2255,-0.00335693,
0.226,-0.00518799,
0.2265,-0.00579834,
0.227,-0.00732422,
0.2275,-0.00762939,
0.228,-0.00564575,
0.2285,-0.00686646,
0.229,-0.00900269,
0.2295,-0.0088501,
0.23,-0.00869751,
0.2305,-0.00839233,
0.231,-0.00823975,
0.2315,-0.00930786,
0.232,-0.00732422,
0.2325,-0.00366211,
0.233,0.00183105,
0.2335,0.0152588,
0.234,0.0309753,
0.2345,0.0444031,
0.235,0.0508118,
0.2355,0.0521851,
0.236,0.0491333,
0.2365,0.0376892,
0.237,0.0154114,
0.2375,-0.0210571,
0.238,-0.0523376,
0.2385,-0.0572205,
0.239,-0.0422668,
0.2395,-0.0161743,
0.24,-0.00244141,
0.2405,-0.0305176,
0.241,-0.10437,
0.2415,-0.1651,
0.242,-0.162659,
0.2425,-0.125427,
0.243,-0.0915527,
0.2435,-0.0787354,
0.244,-0.0900269,
0.2445,-0.12207,
0.245,-0.154114,
0.2455,-0.160828,
0.246,-0.137634,
0.2465,-0.103302,
0.247,-0.0636292,
0.2475,-0.0241089,
0.248,0.0112915,
0.2485,0.0764465,
0.249,0.166931,
0.2495,0.240173,
0.25,0.271912,
0.2505,0.266113,
0.251,0.244141,
0.2515,0.219116,
0.252,0.174103,
0.2525,0.115204,
0.253,0.0630188,
0.2535,0.0219727,
0.254,-0.010376,
0.2545,-0.0328064,
0.255,-0.0384521,
0.2555,-0.0302124,
0.256,-0.0166321,
0.2565,-0.00228882,
0.257,0.0128174,
0.2575,0.0259399,
0.258,0.0389099,
0.2585,0.0372314,
0.259,0.022583,
0.2595,0.0112915,
0.26,0.0117493,
0.2605,0.0109863,
0.261,0.0012207,
0.2615,-0.0177002,
0.262,-0.0445557,
0.2625,-0.0671387,
0.263,-0.063324,
0.2635,-0.0422668,
0.264,-0.0299072,
0.2645,-0.0256348,
0.265,-0.0218201,
0.2655,-0.0161743,
0.266,-0.0120544,
0.2665,-0.0128174,
0.267,-0.0154114,
0.2675,-0.00930786,
0.268,-0.00198364,
0.2685,0.000915527,
0.269,-0.00183105,
0.2695,-0.00762939,
0.27,-0.0119019,
0.2705,-0.0143433,
0.271,-0.0154114,
0.2715,-0.0137329,
0.272,-0.00823975,
0.2725,-0.00350952,
0.273,-0.00488281,
0.2735,-0.00839233,
0.274,-0.010376,
0.2745,-0.0106812,
0.275,-0.0120544,
0.2755,-0.0112915,
0.276,-0.0109863,
0.2765,-0.0120544,
0.277,-0.0114441,
0.2775,-0.0108337,
0.278,-0.0105286,
0.2785,-0.00900269,
0.279,-0.00839233,
0.2795,-0.00839233,
0.28,-0.00839233,
0.2805,-0.00946045,
0.281,-0.00778198,
0.2815,-0.00915527,
0.282,-0.0100708,
0.2825,-0.00747681,
0.283,-0.00595093,
0.2835,-0.00610352,
0.284,-0.0088501,
0.2845,-0.010376,
0.285,-0.0111389,
0.2855,-0.0134277,
0.286,-0.0117493,
0.2865,-0.00946045,
0.287,-0.00701904,
0.2875,-0.00595093,
0.288,-0.00656128,
0.2885,-0.00183105,
0.289,0.00198364,
0.2895,-0.000762939,
0.29,-0.00305176,
0.2905,-0.00320435,
0.291,-0.00198364,
0.2915,-0.00442505,
0.292,-0.00961304,
0.2925,-0.0102234,
0.293,-0.00228882,
0.2935,0.00808716,
0.294,0.0108337,
0.2945,0.00518799,
0.295,0.000762939,
0.2955,-0.000762939,
0.296,-0.00106812,
0.2965,-0.00213623,
0.297,-0.00289917,
0.2975,-0.000457764,
0.298,0.00106812,
0.2985,0,
0.299,-0.0012207,
0.2995,-0.0038147,
0.3,-0.00534058,
0.3005,-0.00610352,
0.301,-0.0100708,
0.3015,-0.00854492,
0.302,0.00305176,
0.3025,0.010376,
0.303,0.00549316,
0.3035,-0.000152588,
0.304,-0.0012207,
0.3045,0.00167847,
0.305,0.00183105,
0.3055,-0.00335693,
0.306,-0.00793457,
0.3065,-0.00717163,
0.307,-0.00289917,
0.3075,-0.000305176,
0.308,-0.000457764,
0.3085,-0.00350952,
0.309,-0.00228882,
0.3095,-0.00244141,
0.31,-0.00106812,
0.3105,0.0038147,
0.311,0.00717163,
0.3115,0.00701904,
0.312,0.0050354,
0.3125,0.00534058,
0.313,0.00457764,
0.3135,0.00137329,
0.314,0.000762939,
0.3145,0,
0.315,0.00137329,
0.3155,0.00289917,
0.316,0.00198364,
0.3165,0.00167847,
0.317,0.00167847,
0.3175,0.000152588,
0.318,-0.000610352,
0.3185,-0.00106812,
0.319,0.000457764,
0.3195,0.00137329,
0.32,0.00167847,
0.3205,0.00152588,
0.321,0.000152588,
0.3215,-0.00244141,
0.322,-0.00442505,
0.3225,-0.00411987,
0.323,-0.00350952,
0.3235,-0.00350952,
0.324,-0.00473022,
0.3245,-0.0038147,
0.325,-0.00213623,
0.3255,-0.00427246,
0.326,-0.00686646,
0.3265,-0.00656128,
0.327,-0.00564575,
0.3275,-0.0038147,
0.328,-0.00213623,
0.3285,-0.000915527,
0.329,-0.000915527,
0.3295,-0.00244141,
0.33,-0.00289917,
0.3305,-0.00335693,
0.331,-0.00640869,
0.3315,-0.00732422,
0.332,-0.00686646,
0.3325,-0.00747681,
0.333,-0.00946045,
0.3335,-0.00564575,
0.334,-0.0012207,
0.3345,-0.00305176,
0.335,-0.0109863,
0.3355,-0.0143433,
0.336,-0.0126648,
0.3365,-0.0146484,
0.337,-0.0212097,
0.3375,-0.0230408,
0.338,-0.0215149,
0.3385,-0.0193787,
0.339,-0.017395,
0.3395,-0.00320435,
0.34,0.0183105,
0.3405,0.0315857,
0.341,0.0418091,
0.3415,0.0537109,
0.342,0.0588989,
0.3425,0.0488281,
0.343,0.0317383,
0.3435,0.0175476,
0.344,0.0111389,
0.3445,0.0108337,
0.345,0.000610352,
0.3455,-0.0138855,
0.346,-0.0213623,
0.3465,-0.0144958,
0.347,0,
0.3475,-0.020752,
0.348,-0.0741577,
0.3485,-0.105743,
0.349,-0.0805664,
0.3495,-0.0318909,
0.35,0.00595093,
0.3505,0.0212097,
0.351,0.0172424,
0.3515,0.00350952,
0.352,-0.00366211,
0.3525,-0.00564575,
0.353,-0.00411987,
0.3535,-0.00213623,
0.354,-0.000915527,
0.3545,-0.000915527,
0.355,0.000915527,
0.3555,0.00396729,
0.356,0.00411987,
0.3565,0.000762939,
0.357,-0.00198364,
0.3575,-0.00152588,
0.358,-0.0012207,
0.3585,-0.00244141,
0.359,-0.00473022,
0.3595,-0.00549316,
0.36,-0.0038147,
0.3605,-0.00167847,
0.361,0.000610352,
0.3615,0.00411987,
0.362,0.00289917,
0.3625,0.00213623,
0.363,0.00350952,
0.3635,0.00640869,
0.364,0.00534058,
0.3645,0.00366211,
0.365,-0.000610352,
0.3655,-0.00289917,
0.366,-0.00350952,
0.3665,-0.00350952,
0.367,-0.00518799,
0.3675,-0.0088501,
0.368,-0.0102234,
0.3685,-0.00762939,
0.369,-0.00808716,
0.3695,-0.0143433,
0.37,-0.0244141,
0.3705,-0.0398254,
0.371,-0.0553894,
0.3715,-0.0622559,
0.372,-0.062561,
0.3725,-0.0601196,
0.373,-0.052948,
0.3735,-0.0445557,
0.374,-0.0444031,
0.3745,-0.0469971,
0.375,-0.0422668,
0.3755,-0.0238037,
0.376,0.00793457,
0.3765,0.0376892,
0.377,0.0480652,
0.3775,0.0746155,
0.378,0.123596,
0.3785,0.146484,
0.379,0.129089,
0.3795,0.0892639,
0.38,0.0538635,
0.3805,0.0444031,
0.381,0.0538635,
0.3815,0.0491333,
0.382,0.019989,
0.3825,-0.00823975,
0.383,-0.020752,
0.3835,-0.0164795,
0.384,-0.00823975,
0.3845,-0.0111389,
0.385,-0.0186157,
0.3855,-0.0212097,
0.386,-0.0119019,
0.3865,0.00808716,
0.387,0.020752,
0.3875,0.0190735,
0.388,0.0195313,
0.3885,0.0299072,
0.389,0.0384521,
0.3895,0.035553,
0.39,0.0276184,
0.3905,0.0202942,
0.391,0.00564575,
0.3915,-0.015564,
0.392,-0.0306702,
0.3925,-0.0280762,
0.393,-0.0154114,
0.3935,-0.00854492,
0.394,-0.00900269,
0.3945,-0.00823975,
0.395,-0.00350952,
0.3955,-0.00198364,
0.396,-0.0062561,
0.3965,-0.0157166,
0.397,-0.0221252,
0.3975,-0.0183105,
0.398,-0.0128174,
0.3985,-0.00656128,
0.399,-0.00595093,
0.3995,-0.0108337,
0.4,-0.0170898,
0.4005,-0.0244141,
0.401,-0.0238037,
0.4015,-0.0183105,
0.402,-0.0149536,
0.4025,-0.0132751,
0.403,-0.0151062,
0.4035,-0.0183105,
0.404,-0.0166321,
0.4045,-0.01297,
0.405,-0.0109863,
0.4055,-0.00915527,
0.406,-0.00839233,
0.4065,-0.00976563,
0.407,-0.010376,
0.4075,-0.010376,
0.408,-0.00946045,
0.4085,-0.00823975,
0.409,-0.00701904,
0.4095,-0.0088501,
0.41,-0.00869751,
0.4105,-0.00839233,
0.411,-0.00823975,
0.4115,-0.0109863,
0.412,-0.0108337,
0.4125,-0.00946045,
0.413,-0.0100708,
0.4135,-0.0119019,
0.414,-0.0128174,
0.4145,-0.0102234,
0.415,-0.0100708,
0.4155,-0.00854492,
0.416,-0.00701904,
0.4165,-0.00732422,
0.417,-0.00656128,
0.4175,-0.00778198,
0.418,-0.0108337,
0.4185,-0.00854492,
0.419,-0.00793457,
0.4195,-0.00976563,
0.42,-0.0088501,
0.4205,-0.00854492,
0.421,-0.00823975,
0.4215,-0.00473022,
0.422,-0.00228882,
0.4225,-0.00259399,
0.423,-0.00167847,
0.4235,-0.00411987,
0.424,-0.00518799,
0.4245,-0.00228882,
0.425,-0.00137329,
0.4255,-0.00228882,
0.426,-0.00198364,
0.4265,-0.0050354,
0.427,-0.0144958,
0.4275,-0.0111389,
0.428,-0.0012207,
0.4285,0.00106812,
0.429,-0.00457764,
0.4295,-0.00976563,
0.43,-0.00320435,
0.4305,0.00320435,
0.431,0.00289917,
0.4315,0.00411987,
0.432,0.0135803,
0.4325,0.0241089,
0.433,0.030365,
0.4335,0.0283813,
0.434,0.0106812,
0.4345,-0.0152588,
0.435,-0.0263977,
0.4355,-0.0184631,
0.436,-0.0050354,
0.4365,0.00335693,
0.437,0.0212097,
0.4375,0.0469971,
0.438,0.0630188,
0.4385,0.0616455,
0.439,0.0482178,
0.4395,0.0254822,
0.44,0.00839233,
0.4405,0.00244141,
0.441,-0.000305176,
0.4415,-0.00747681,
0.442,-0.017395,
0.4425,-0.0350952,
0.443,-0.0602722,
0.4435,-0.102539,
0.444,-0.148621,
0.4445,-0.140533,
0.445,-0.0576782,
0.4455,0.0238037,
0.446,0.0434875,
0.4465,0.0267029,
0.447,0.0172424,
0.4475,0.0216675,
0.448,0.0262451,
0.4485,0.0233459,
0.449,0.0187683,
0.4495,0.0180054,
0.45,0.0169373,
0.4505,0.0144958,
0.451,0.00762939,
0.4515,-0.00411987,
0.452,-0.0254822,
0.4525,-0.0488281,
0.453,-0.0442505,
0.4535,-0.0210571,
0.454,-0.00640869,
0.4545,-0.00488281,
0.455,-0.00198364,
0.4555,0.000457764,
0.456,0.000915527,
0.4565,0,
0.457,-0.000762939,
0.4575,-0.000610352,
0.458,-0.00106812,
0.4585,-0.000610352,
0.459,0.000762939,
0.4595,0.00274658,
0.46,0.00213623,
0.4605,0.00167847,
0.461,0.00137329,
0.4615,0.00167847,
0.462,0.0012207,
0.4625,-0.00106812,
0.463,0.00335693,
0.4635,0.0038147,
0.464,0.00305176,
0.4645,0.00640869,
0.465,0.00823975,
0.4655,0.00762939,
0.466,0.00991821,
0.4665,0.00946045,
0.467,0.00747681,
0.4675,0.00640869,
0.468,0.00640869,
0.4685,0.00427246,
0.469,0.00274658,
0.4695,0.00350952,
0.47,0.00366211,
0.4705,0.00473022,
0.471,0.00167847,
0.4715,0.00320435,
0.472,0.00778198,
0.4725,0.00549316,
0.473,-0.00228882,
0.4735,-0.0114441,
0.474,-0.0178528,
0.4745,-0.0167847,
0.475,-0.0160217,
0.4755,-0.0166321,
0.476,-0.0163269,
0.4765,-0.0198364,
0.477,-0.0280762,
0.4775,-0.0337219,
0.478,-0.0253296,
0.4785,-0.00732422,
0.479,0.00305176,
0.4795,0.0114441,
0.48,0.0248718,
0.4805,0.0389099,
0.481,0.045166,
0.4815,0.0415039,
0.482,0.0254822,
0.4825,0.000305176,
0.483,-0.0102234,
0.4835,-0.00900269,
0.484,-0.0125122,
0.4845,-0.030365,
0.485,-0.0447083,
0.4855,-0.0390625,
0.486,-0.0218201,
0.4865,-0.00473022,
0.487,0.0134277,
0.4875,0.0317383,
0.488,0.0482178,
0.4885,0.0650024,
0.489,0.0749207,
0.4895,0.0764465,
0.49,0.0650024,
0.4905,0.0427246,
0.491,0.0193787,
0.4915,0.0062561,
0.492,0.00198364,
0.4925,-0.00335693,
0.493,-0.00610352,
0.4935,0,
0.494,0.00640869,
0.4945,0.00823975,
0.495,0.00839233,
0.4955,0.00564575,
0.496,0.00137329,
0.4965,-0.00183105,
0.497,-0.00305176,
0.4975,-0.00335693,
0.498,-0.00488281,
0.4985,-0.0088501,
0.499,-0.0114441,
0.4995,-0.0114441,
0.5,-0.00976563,
0.5005,-0.0105286,
0.501,-0.0152588,
0.5015,-0.0169373,
0.502,-0.0167847,
0.5025,-0.017395,
0.503,-0.0190735,
0.5035,-0.0170898,
0.504,-0.0126648,
0.5045,-0.00808716,
0.505,-0.00473022,
0.5055,-0.0050354,
0.506,-0.00549316,
0.5065,-0.00701904,
0.507,-0.00808716,
0.5075,-0.00839233,
0.508,-0.0117493,
0.5085,-0.0198364,
0.509,-0.0312805,
0.5095,-0.0340271,
0.51,-0.0218201,
0.5105,-0.00747681,
0.511,0.00137329,
0.5115,0.00656128,
0.512,0.00686646,
0.5125,0.0038147,
0.513,0.0050354,
0.5135,0.00915527,
0.514,0.0125122,
0.5145,0.00854492,
0.515,-0.0105286,
0.5155,-0.03479,
0.516,-0.0390625,
0.5165,-0.0224304,
0.517,-0.00610352,
0.5175,0,
0.518,-0.00442505,
0.5185,-0.00762939,
0.519,-0.0134277,
0.5195,-0.0238037,
0.52,-0.0346375,
0.5205,-0.0382996,
0.521,-0.0297546,
0.5215,-0.0163269,
0.522,-0.0170898,
0.5225,-0.0326538,
0.523,-0.0402832,
0.5235,-0.0395203,
0.524,-0.0393677,
0.5245,-0.03479,
0.525,-0.0273132,
0.5255,-0.0233459,
0.526,-0.017395,
0.5265,-0.00686646,
0.527,0.0128174,
0.5275,0.0367737,
0.528,0.0569153,
0.5285,0.0663757,
0.529,0.0675964,
0.5295,0.0669861,
0.53,0.0624084,
0.5305,0.058136,
0.531,0.0473022,
0.5315,0.0343323,
0.532,0.0216675,
0.5325,0.0154114,
0.533,0.012207,
0.5335,0.00686646,
0.534,0.00289917,
0.5345,0.00183105,
0.535,0.00289917,
0.5355,0.00213623,
0.536,0,
0.5365,-0.00228882,
0.537,-0.00335693,
0.5375,-0.00518799,
0.538,-0.00701904,
0.5385,-0.00518799,
0.539,-0.00823975,
0.5395,-0.00839233,
0.54,-0.00823975,
0.5405,-0.00946045,
0.541,-0.00930786,
0.5415,-0.0112915,
0.542,-0.0112915,
0.5425,-0.0108337,
0.543,-0.00930786,
0.5435,-0.00976563,
0.544,-0.0120544,
0.5445,-0.01297,
0.545,-0.0115967,
0.5455,-0.0109863,
0.546,-0.0137329,
0.5465,-0.0151062,
0.547,-0.0126648,
0.5475,-0.0112915,
0.548,-0.0123596,
0.5485,-0.01297,
0.549,-0.0134277,
0.5495,-0.0143433,
0.55,-0.0157166,
0.5505,-0.0183105,
0.551,-0.0149536,
0.5515,-0.0111389,
0.552,-0.0114441,
0.5525,-0.0112915,
0.553,-0.0125122,
0.5535,-0.0146484,
0.554,-0.0152588,
0.5545,-0.0167847,
0.555,-0.01297,
0.5555,-0.00808716,
0.556,-0.00640869,
0.5565,-0.00915527,
0.557,-0.01297,
0.5575,-0.0151062,
0.558,-0.0102234,
0.5585,-0.00106812,
0.559,0.00106812,
0.5595,-0.00473022,
0.56,-0.00869751,
0.5605,-0.00717163,
0.561,-0.00473022,
0.5615,-0.00488281,
0.562,-0.00534058,
0.5625,-0.00320435,
0.563,-0.00610352,
0.5635,-0.012207,
0.564,-0.0128174,
0.5645,-0.00549316,
0.565,-0.000610352,
0.5655,-0.00152588,
0.566,0.000457764,
0.5665,0.00411987,
0.567,0.000915527,
0.5675,-0.00457764,
0.568,-0.0012207,
0.5685,0.00579834,
0.569,0.01297,
0.5695,0.0140381,
0.57,0.0143433,
0.5705,0.0157166,
0.571,0.0160217,
0.5715,0.0146484,
0.572,0.0132751,
0.5725,0.00183105,
0.573,-0.0180054,
0.5735,-0.0471497,
0.574,-0.0614929,
0.5745,-0.039978,
0.575,-0.0204468,
0.5755,-0.0230408,
0.576,-0.030365,
0.5765,-0.0230408,
0.577,-0.0132751,
0.5775,-0.0120544,
0.578,-0.00946045,
0.5785,-0.00366211,
0.579,0.00152588,
0.5795,0.00366211,
0.58,0.00976563,
0.5805,0.0239563,
0.581,0.0401306,
0.5815,0.045166,
0.582,0.0334167,
0.5825,0.0202942,
0.583,0.0163269,
0.5835,0.0163269,
0.584,0.0196838,
0.5845,0.0239563,
0.585,0.0270081,
0.5855,0.0262451,
0.586,0.0192261,
0.5865,0.00900269,
0.587,0.00106812,
0.5875,0.00778198,
0.588,0.00656128,
0.5885,-0.00900269,
0.589,-0.0218201,
0.5895,-0.0221252,
0.59,-0.017395,
0.5905,-0.0126648,
0.591,-0.00808716,
0.5915,-0.00473022,
0.592,-0.00656128,
0.5925,-0.00778198,
0.593,-0.00335693,
0.5935,0.0012207,
0.594,-0.0012207,
0.5945,-0.00595093,
0.595,-0.00701904,
0.5955,-0.000457764,
0.596,0.00595093,
0.5965,0.0050354,
0.597,0.0012207,
0.5975,-0.00198364,
0.598,0,
0.5985,0.000762939,
0.599,0,
0.5995,0.000610352,
0.6,-0.00213623,
0.6005,-0.00595093,
0.601,-0.0050354,
0.6015,-0.00457764,
0.602,-0.00213623,
0.6025,0.00198364,
0.603,0.0050354,
0.6035,0.00427246,
0.604,0.0012207,
0.6045,0.00106812,
0.605,0.00137329,
0.6055,0.00183105,
0.606,0.00701904,
0.6065,0.0143433,
0.607,0.015564,
0.6075,0.00656128,
0.608,-0.000610352,
0.6085,-0.00442505,
0.609,-0.00366211,
0.6095,-0.00183105,
0.61,-0.00137329,
0.6105,-0.00289917,
0.611,-0.00717163,
0.6115,-0.00854492,
0.612,-0.00717163,
0.6125,-0.0106812,
0.613,-0.0106812,
0.6135,-0.00411987,
0.614,0.00274658,
0.6145,0.00518799,
0.615,0.000152588,
0.6155,-0.00564575,
0.616,-0.00564575,
0.6165,-0.0012207,
0.617,-0.00213623,
0.6175,-0.00427246,
0.618,-0.00518799,
0.6185,-0.00244141,
0.619,0.0050354,
0.6195,0.00656128,
0.62,0.0062561,
0.6205,0.00183105,
0.621,-0.00289917,
0.6215,-0.000610352,
0.622,0.0012207,
0.6225,0.000915527,
0.623,-0.00411987,
0.6235,-0.0175476,
0.624,-0.0222778,
0.6245,-0.0193787,
0.625,-0.0117493,
0.6255,-0.00732422,
0.626,-0.00595093,
0.6265,-0.00549316,
0.627,-0.0012207,
0.6275,-0.00106812,
0.628,-0.00396729,
0.6285,-0.00549316,
0.629,-0.00595093,
0.6295,-0.00564575,
0.63,-0.00396729,
0.6305,-0.00335693,
0.631,-0.00350952,
0.6315,-0.00457764,
0.632,-0.00396729,
0.6325,-0.00335693,
0.633,0.000457764,
0.6335,0.0062561,
0.634,0.01297,
0.6345,0.0123596,
0.635,0.0088501,
0.6355,0.00976563,
0.636,0.00778198,
0.6365,0.00228882,
0.637,-0.00213623,
0.6375,-0.00915527,
0.638,-0.0311279,
0.6385,-0.0486755,
0.639,-0.0439453,
0.6395,-0.0271606,
0.64,-0.0183105,
0.6405,-0.017395,
0.641,-0.017395,
0.6415,-0.0125122,
0.642,-0.000152588,
0.6425,0.00915527,
0.643,0.00686646,
0.6435,0.00366211,
0.644,0.00457764,
0.6445,0.00289917,
0.645,0.00183105,
0.6455,0.00137329,
0.646,0.00183105,
0.6465,0.00305176,
0.647,0.00427246,
0.6475,0.00701904,
0.648,0.00854492,
0.6485,0.00701904,
0.649,0.00488281,
0.6495,0.0012207,
0.65,-0.000610352,
0.6505,0.000762939,
0.651,0.000915527,
0.6515,-0.00137329,
0.652,0.000305176,
0.6525,0.00274658,
0.653,0.00183105,
0.6535,0.000305176,
0.654,-0.000610352,
0.6545,0.000762939,
0.655,0.0012207,
0.6555,-0.00167847,
0.656,-0.00411987,
0.6565,-0.00183105,
0.657,0.00457764,
0.6575,0.00671387,
0.658,0.00473022,
0.6585,0.00106812,
0.659,-0.000305176,
0.6595,0.000305176,
0.66,-0.000305176,
0.6605,-0.00244141,
0.661,-0.00473022,
0.6615,-0.00564575,
0.662,-0.00366211,
0.6625,0.0012207,
0.663,0.00656128,
0.6635,0.00869751,
0.664,0.00900269,
0.6645,0.0119019,
0.665,0.0125122,
0.6655,0.00579834,
0.666,-0.00427246,
0.6665,-0.0115967,
0.667,-0.025177,
0.6675,-0.0509644,
0.668,-0.0613403,
0.6685,-0.0421143,
0.669,-0.0167847,
0.6695,-0.0112915,
0.67,-0.00671387,
0.6705,0.00701904,
0.671,0.0213623,
0.6715,0.043335,
0.672,0.070343,
0.6725,0.0938416,
0.673,0.106049,
0.6735,0.103607,
0.674,0.0891113,
0.6745,0.0749207,
0.675,0.0602722,
0.6755,0.039978,
0.676,0.0038147,
0.6765,-0.0643921,
0.677,-0.146484,
0.6775,-0.179443,
0.678,-0.130005,
0.6785,-0.0700378,
0.679,-0.0454712,
0.6795,-0.0354004,
0.68,-0.0267029,
0.6805,-0.0256348,
0.681,-0.0297546,
0.6815,-0.0317383,
0.682,-0.0280762,
0.6825,-0.0117493,
0.683,0.00778198,
0.6835,0.00350952,
0.684,-0.00839233,
0.6845,-0.0108337,
0.685,-0.00442505,
0.6855,0.00320435,
0.686,0.00579834,
0.6865,0.0062561,
0.687,0.00488281,
0.6875,0.00305176,
0.688,0.00305176,
0.6885,0.000915527,
0.689,0,
0.6895,0.000457764,
0.69,0.00137329,
0.6905,0.00152588,
0.691,0.00152588,
0.6915,0,
0.692,-0.000610352,
0.6925,0.000610352,
0.693,-0.00183105,
0.6935,-0.00427246,
0.694,0.000305176,
0.6945,0.0151062,
0.695,0.0402832,
0.6955,0.0762939,
0.696,0.115509,
0.6965,0.135956,
0.697,0.137329,
0.6975,0.134888,
0.698,0.133514,
0.6985,0.131989,
0.699,0.117798,
0.6995,0.0764465,
0.7,0.0248718,
0.7005,-0.0146484,
0.701,-0.0527954,
0.7015,-0.130615,
0.702,-0.22171,
0.7025,-0.230103,
0.703,-0.166626,
0.7035,-0.108948,
0.704,-0.0706482,
0.7045,-0.0480652,
0.705,-0.0549316,
0.7055,-0.0993347,
0.706,-0.140839,
0.7065,-0.129395,
0.707,-0.0849915,
0.7075,-0.0486755,
0.708,-0.0241089,
0.7085,-0.0038147,
0.709,0.0102234,
0.7095,0.015564,
0.71,0.017395,
0.7105,0.0134277,
0.711,0.00610352,
0.7115,-0.0102234,
0.712,-0.0253296,
0.7125,-0.0288391,
0.713,-0.0309753,
0.7135,-0.0401306,
0.714,-0.0350952,
0.7145,-0.0128174,
0.715,0.00488281,
0.7155,0.0204468,
0.716,0.0343323,
0.7165,0.0376892,
0.717,0.035553,
0.7175,0.0396729,
0.718,0.0485229,
0.7185,0.0517273,
0.719,0.0442505,
0.7195,0.0335693,
0.72,0.0263977,
0.7205,0.022583,
0.721,0.019989,
0.7215,0.0202942,
0.722,0.020752,
0.7225,0.020752,
0.723,0.0196838,
0.7235,0.0204468,
0.724,0.0221252,
0.7245,0.0193787,
0.725,0.0123596,
0.7255,0.00366211,
0.726,0.000152588,
0.7265,0.00106812,
0.727,0.00289917,
0.7275,0.00411987,
0.728,0.00686646,
0.7285,0.00671387,
0.729,0.00320435,
0.7295,0.00137329,
0.73,0.000305176,
0.7305,0.0038147,
0.731,0.00442505,
0.7315,0.00427246,
0.732,0.00564575,
0.7325,0.00762939,
0.733,0.00732422,
0.7335,0.00839233,
0.734,0.00869751,
0.7345,0.00686646,
0.735,0.00167847,
0.7355,-0.0050354,
0.736,-0.00762939,
0.7365,-0.00640869,
0.737,-0.00305176,
0.7375,-0.0012207,
0.738,-0.00274658,
0.7385,-0.00442505,
0.739,-0.00411987,
0.7395,-0.00198364,
0.74,0,
0.7405,-0.000915527,
0.741,0.00701904,
0.7415,0.0212097,
0.742,0.0283813,
0.7425,0.0286865,
0.743,0.0222778,
0.7435,0.0160217,
0.744,0.014801,
0.7445,0.0160217,
0.745,0.00671387,
0.7455,-0.00976563,
0.746,-0.0354004,
0.7465,-0.0563049,
0.747,-0.0532532,
0.7475,-0.0366211,
0.748,-0.0250244,
0.7485,-0.0192261,
0.749,-0.0151062,
0.7495,-0.0151062,
0.75,-0.0151062,
0.7505,-0.0117493,
0.751,-0.00305176,
0.7515,0.00656128,
0.752,0.0108337,
0.7525,0.0108337,
0.753,0.0050354,
0.7535,0.000610352,
0.754,-0.00228882,
0.7545,-0.00457764,
0.755,-0.00534058,
0.7555,-0.00228882,
0.756,-0.00198364,
0.7565,-0.00915527,
0.757,-0.0164795,
0.7575,-0.0163269,
0.758,-0.0126648,
0.7585,-0.00762939,
0.759,0.00228882,
0.7595,0.0132751,
0.76,0.0172424,
0.7605,0.01297,
0.761,0.00259399,
0.7615,-0.00518799,
0.762,-0.00854492,
0.7625,-0.0146484,
0.763,-0.0231934,
0.7635,-0.0215149,
0.764,-0.0141907,
0.7645,-0.00808716,
0.765,-0.000762939,
0.7655,0.012207,
0.766,0.0184631,
0.7665,0.0141907,
0.767,0.00564575,
0.7675,-0.000762939,
0.768,-0.00289917,
0.7685,-0.00335693,
0.769,-0.00473022,
0.7695,-0.00228882,
0.77,0.000305176,
0.7705,-0.00198364,
0.771,-0.00442505,
0.7715,-0.00579834,
0.772,-0.00946045,
0.7725,-0.0144958,
0.773,-0.0125122,
0.7735,-0.0115967,
0.774,-0.012207,
0.7745,-0.0115967,
0.775,-0.0154114,
0.7755,-0.0190735,
0.776,-0.0184631,
0.7765,-0.0163269,
0.777,-0.0125122,
0.7775,-0.0105286,
0.778,-0.00213623,
0.7785,0.00854492,
0.779,0.0128174,
0.7795,0.012207,
0.78,0.0117493,
0.7805,0.00991821,
0.781,0.0111389,
0.7815,0.0192261,
0.782,0.0288391,
0.7825,0.032196,
0.783,0.0268555,
0.7835,0.0196838,
0.784,0.0166321,
0.7845,0.0119019,
0.785,0.00946045,
0.7855,0.00686646,
0.786,0.00320435,
0.7865,0.00137329,
0.787,-0.0050354,
0.7875,-0.0111389,
0.788,-0.0170898,
0.7885,-0.0167847,
0.789,-0.0144958,
0.7895,-0.0177002,
0.79,-0.0180054,
0.7905,-0.014801,
0.791,-0.0102234,
0.7915,-0.00869751,
0.792,-0.00854492,
0.7925,-0.00976563,
0.793,-0.0100708,
0.7935,-0.00732422,
0.794,-0.0062561,
0.7945,-0.00595093,
0.795,-0.00686646,
0.7955,-0.00640869,
0.796,-0.00610352,
0.7965,-0.00732422,
0.797,-0.00793457,
0.7975,-0.00839233,
0.798,-0.0125122,
0.7985,-0.0114441,
0.799,-0.00335693,
0.7995,0.00167847,
0.8,-0.000915527,
0.8005,-0.00289917,
0.801,-0.00320435,
0.8015,-0.000762939,
0.802,0,
0.8025,-0.000915527,
0.803,-0.00396729,
0.8035,-0.00244141,
0.804,-0.00274658,
0.8045,-0.00320435,
0.805,-0.00213623,
0.8055,-0.00640869,
0.806,-0.0141907,
0.8065,-0.0169373,
0.807,-0.0111389,
0.8075,-0.00442505,
0.808,-0.00137329,
0.8085,0.000610352,
0.809,-0.000610352,
0.8095,-0.00213623,
0.81,-0.00152588,
0.8105,0.00396729,
0.811,0.00900269,
0.8115,0.0119019,
0.812,0.0062561,
0.8125,-0.00778198,
0.813,-0.015564,
0.8135,-0.0195313,
0.814,-0.0212097,
0.8145,-0.0189209,
0.815,-0.0132751,
0.8155,-0.00610352,
0.816,-0.00244141,
0.8165,-0.000915527,
0.817,-0.00183105,
0.8175,0.00640869,
0.818,0.0244141,
0.8185,0.0408936,
0.819,0.0535583,
0.8195,0.0624084,
0.82,0.0604248,
0.8205,0.0431824,
0.821,0.0160217,
0.8215,-0.0111389,
0.822,-0.0282288,
0.8225,-0.0314331,
0.823,-0.0213623,
0.8235,-0.00762939,
0.824,-0.000915527,
0.8245,-0.00732422,
0.825,-0.0212097,
0.8255,-0.0308228,
0.826,-0.0299072,
0.8265,-0.0263977,
0.827,-0.0189209,
0.8275,-0.0111389,
0.828,-0.00732422,
0.8285,-0.00823975,
0.829,-0.0125122,
0.8295,-0.00915527,
0.83,0.00137329,
0.8305,0.0135803,
0.831,0.0239563,
0.8315,0.0308228,
0.832,0.032959,
0.8325,0.0297546,
0.833,0.0198364,
0.8335,0.018158,
0.834,0.0209045,
0.8345,0.0149536,
0.835,-0.00732422,
0.8355,-0.03479,
0.836,-0.0337219,
0.8365,-0.0144958,
0.837,-0.0108337,
0.8375,-0.0189209,
0.838,-0.0299072,
0.8385,-0.0350952,
0.839,-0.0309753,
0.8395,-0.0204468,
0.84,-0.01297,
0.8405,-0.00411987,
0.841,0.00610352,
0.8415,0.0157166,
0.842,0.0256348,
0.8425,0.0297546,
0.843,0.0270081,
0.8435,0.0187683,
0.844,0.0161743,
0.8445,0.0163269,
0.845,0.0180054,
0.8455,0.0205994,
0.846,0.0112915,
0.8465,-0.00167847,
0.847,-0.0062561,
0.8475,0.00106812,
0.848,0.00366211,
0.8485,0.00213623,
0.849,-0.00366211,
0.8495,-0.0102234,
0.85,-0.0177002,
0.8505,-0.0218201,
0.851,-0.0268555,
0.8515,-0.0367737,
0.852,-0.0408936,
0.8525,-0.0375366,
0.853,-0.0311279,
0.8535,-0.0263977,
0.854,-0.0222778,
0.8545,-0.0175476,
0.855,-0.0160217,
0.8555,-0.0157166,
0.856,-0.0183105,
0.8565,-0.0154114,
0.857,-0.0138855,
0.8575,-0.0161743,
0.858,-0.0161743,
0.8585,-0.0128174,
0.859,-0.0138855,
0.8595,-0.0132751,
0.86,-0.00976563,
0.8605,-0.00564575,
0.861,-0.00549316,
0.8615,-0.00564575,
0.862,-0.00793457,
0.8625,-0.01297,
0.863,-0.0146484,
0.8635,-0.00900269,
0.864,-0.0038147,
0.8645,-0.00915527,
0.865,-0.0149536,
0.8655,-0.0140381,
0.866,-0.00717163,
0.8665,-0.00244141,
0.867,0.00259399,
0.8675,0.010376,
0.868,0.0180054,
0.8685,0.022583,
0.869,0.0268555,
0.8695,0.0323486,
0.87,0.0302124,
0.8705,0.0254822,
0.871,0.0372314,
0.8715,0.0619507,
0.872,0.0784302,
0.8725,0.0857544,
0.873,0.0900269,
0.8735,0.093689,
0.874,0.0871277,
0.8745,0.0679016,
0.875,0.0239563,
0.8755,-0.0468445,
0.876,-0.104065,
0.8765,-0.115051,
0.877,-0.0926208,
0.8775,-0.0868225,
0.878,-0.0944519,
0.8785,-0.0886536,
0.879,-0.0662231,
0.8795,-0.0457764,
0.88,-0.030365,
0.8805,-0.0149536,
0.881,-0.00869751,
0.8815,-0.0140381,
0.882,-0.0215149,
0.8825,-0.0215149,
0.883,-0.0175476,
0.8835,-0.01297,
0.884,-0.00961304,
0.8845,-0.0123596,
0.885,-0.0209045,
0.8855,-0.0265503,
0.886,-0.0167847,
0.8865,-0.00427246,
0.887,-0.00137329,
0.8875,-0.00427246,
0.888,0.00656128,
0.8885,0.0289917,
0.889,0.0605774,
0.8895,0.0891113,
0.89,0.0836182,
0.8905,0.0521851,
0.891,0.022583,
0.8915,0.0143433,
0.892,0.0117493,
0.8925,0.00976563,
0.893,0.00717163,
0.8935,0.00366211,
0.894,0.00198364,
0.8945,-0.00183105,
0.895,-0.00579834,
0.8955,-0.0062561,
0.896,-0.00228882,
0.8965,0.00183105,
0.897,0.00167847,
0.8975,-0.00259399,
0.898,-0.00350952,
0.8985,-0.00396729,
0.899,-0.00686646,
0.8995,-0.0102234,
0.9,-0.0062561,
0.9005,0.00167847,
0.901,0.000915527,
0.9015,-0.00320435,
0.902,-0.00350952,
0.9025,-0.000762939,
0.903,0.0109863,
0.9035,0.0259399,
0.904,0.0317383,
0.9045,0.0320435,
0.905,0.0335693,
0.9055,0.0308228,
0.906,0.0299072,
0.9065,0.0376892,
0.907,0.0395203,
0.9075,0.0296021,
0.908,0.0166321,
0.9085,0.00518799,
0.909,-0.0100708,
0.9095,0.00320435,
0.91,0.032959,
0.9105,0.0363159,
0.911,0.0193787,
0.9115,0.0100708,
0.912,0.0143433,
0.9125,0.0137329,
0.913,0.00823975,
0.9135,0.00961304,
0.914,0.0125122,
0.9145,0.00183105,
0.915,-0.0238037,
0.9155,-0.0524902,
0.916,-0.0779724,
0.9165,-0.0897217,
0.917,-0.0880432,
0.9175,-0.0787354,
0.918,-0.0668335,
0.9185,-0.0564575,
0.919,-0.0466919,
0.9195,-0.0411987,
0.92,-0.0320435,
0.9205,-0.0222778,
0.921,-0.0180054,
0.9215,-0.0239563,
0.922,-0.0338745,
0.9225,-0.0335693,
0.923,-0.0218201,
0.9235,-0.0138855,
0.924,-0.012207,
0.9245,-0.00976563,
0.925,-0.00656128,
0.9255,-0.00137329,
0.926,-0.000610352,
0.9265,-0.00274658,
0.927,-0.00686646,
0.9275,-0.00854492,
0.928,-0.00167847,
0.9285,0.00976563,
0.929,0.01297,
0.9295,0.00793457,
0.93,0.00289917,
0.9305,0.0012207,
0.931,-0.00274658,
0.9315,-0.00183105,
0.932,0.00335693,
0.9325,0.0038147,
0.933,-0.000762939,
0.9335,-0.00366211,
0.934,-0.00137329,
0.9345,-0.00274658,
0.935,-0.00961304,
0.9355,-0.0135803,
0.936,-0.00732422,
0.9365,-0.00335693,
0.937,-0.00686646,
0.9375,-0.00457764,
0.938,0.0038147,
0.9385,0.00564575,
0.939,0.000305176,
0.9395,-0.0038147,
0.94,0,
0.9405,0.00946045,
0.941,0.0177002,
0.9415,0.0177002,
0.942,0.0180054,
0.9425,0.0164795,
0.943,0.0111389,
0.9435,0.0178528,
0.944,0.0370789,
0.9445,0.0479126,
0.945,0.0419617,
0.9455,0.0334167,
0.946,0.0288391,
0.9465,0.0212097,
0.947,0.00579834,
0.9475,-0.012207,
0.948,-0.039978,
0.9485,-0.0663757,
0.949,-0.0714111,
0.9495,-0.0592041,
0.95,-0.0442505,
0.9505,-0.0334167,
0.951,-0.0259399,
0.9515,-0.0219727,
0.952,-0.0241089,
0.9525,-0.0271606,
0.953,-0.0141907,
0.9535,0.0112915,
0.954,0.0402832,
0.9545,0.0775146,
0.955,0.0935364,
0.9555,0.0662231,
0.956,0.0296021,
0.9565,0.0132751,
0.957,0.0117493,
0.9575,0.00701904,
0.958,0.00274658,
0.9585,-0.00427246,
0.959,-0.0180054,
0.9595,-0.0280762,
0.96,-0.020752,
0.9605,0.00656128,
0.961,0.0395203,
0.9615,0.0500488,
0.962,0.032196,
0.9625,0.00976563,
0.963,-0.000915527,
0.9635,-0.00488281,
0.964,-0.00839233,
0.9645,-0.00534058,
0.965,0.000152588,
0.9655,-0.00198364,
0.966,-0.0102234,
0.9665,-0.0111389,
0.967,-0.00579834,
0.9675,0.00259399,
0.968,0.00640869,
0.9685,0.00564575,
0.969,0.00183105,
0.9695,0.00442505,
0.97,0.00732422,
0.9705,0.00442505,
0.971,-0.0105286,
0.9715,-0.0260925,
0.972,-0.017395,
0.9725,0.0106812,
0.973,0.0270081,
0.9735,0.027771,
0.974,0.0247192,
0.9745,0.0172424,
0.975,0.0102234,
0.9755,0.0106812,
0.976,0.0012207,
0.9765,-0.0369263,
0.977,-0.0605774,
0.9775,-0.038147,
0.978,-0.0038147,
0.9785,0.00869751,
0.979,0.00305176,
0.9795,-0.00488281,
0.98,-0.0138855,
0.9805,-0.0175476,
0.981,-0.0247192,
0.9815,-0.0300598,
0.982,-0.0271606,
0.9825,-0.0184631,
0.983,-0.0170898,
0.9835,-0.0160217,
0.984,-0.0120544,
0.9845,-0.00457764,
0.985,-0.000610352,
0.9855,-0.00366211,
0.986,-0.00549316,
0.9865,-0.00762939,
0.987,-0.01297,
0.9875,-0.0146484,
0.988,-0.00915527,
0.9885,-0.00656128,
0.989,-0.00579834,
0.9895,-0.00442505,
0.99,-0.00473022,
0.9905,-0.00289917,
0.991,-0.00595093,
0.9915,-0.00915527,
0.992,-0.00854492,
0.9925,-0.00442505,
0.993,0.00396729,
0.9935,0.00564575,
0.994,-0.00305176,
0.9945,-0.00854492,
0.995,-0.0088501,
0.9955,-0.00732422,
0.996,-0.00717163,
0.9965,-0.0050354,
0.997,-0.00366211,
0.9975,-0.00488281,
0.998,-0.00579834,
0.9985,-0.00762939,
0.999,-0.0119019,
0.9995,-0.0183105,
1,-0.01297,
1.0005,0.000305176,
1.001,0,
1.0015,-0.0161743,
1.002,-0.0259399,
1.0025,-0.0209045,
1.003,-0.00671387,
1.0035,-0.00457764,
1.004,-0.018158,
1.0045,-0.0169373,
1.005,-0.00396729,
1.0055,-0.000610352,
1.006,-0.0138855,
1.0065,-0.0190735,
1.007,-0.0163269,
1.0075,-0.0169373,
1.008,-0.0152588,
1.0085,-0.00350952,
1.009,0.014801,
1.0095,0.0260925,
1.01,0.0273132,
1.0105,0.0296021,
1.011,0.0495911,
1.0115,0.0718689,
1.012,0.0639343,
1.0125,0.0299072,
1.013,0.00640869,
1.0135,0.0050354,
1.014,0.0134277,
1.0145,0.0128174,
1.015,-0.0062561,
1.0155,-0.0509644,
1.016,-0.0979614,
1.0165,-0.144043,
1.017,-0.184479,
1.0175,-0.204926,
1.018,-0.194855,
1.0185,-0.164032,
1.019,-0.128326,
1.0195,-0.091095,
1.02,-0.040741,
1.0205,0.0178528,
1.021,0.0679016,
1.0215,0.124664,
1.022,0.194702,
1.0225,0.248413,
1.023,0.264435,
1.0235,0.237274,
1.024,0.184479,
1.0245,0.130615,
1.025,0.058136,
1.0255,-0.000762939,
1.026,-0.0134277,
1.0265,-0.000457764,
1.027,0.00335693,
1.0275,0.000152588,
1.028,-0.00823975,
1.0285,-0.0102234,
1.029,-0.00396729,
1.0295,0.0108337,
1.03,0.0514221,
1.0305,0.085144,
1.031,0.0680542,
1.0315,0.0302124,
1.032,0.00701904,
1.0325,0.000457764,
1.033,0.00244141,
1.0335,0.00549316,
1.034,0.0106812,
1.0345,0.00991821,
1.035,0.00579834,
1.0355,-0.000305176,
1.036,-0.00213623,
1.0365,-0.00152588,
1.037,0.000610352,
1.0375,0.00289917,
1.038,0.00350952,
1.0385,0.00259399,
1.039,0,
1.0395,-0.00259399,
1.04,-0.0114441,
1.0405,-0.0216675,
1.041,-0.032959,
1.0415,-0.043335,
1.042,-0.0469971,
1.0425,-0.0401306,
1.043,-0.0317383,
1.0435,-0.0315857,
1.044,-0.0338745,
1.0445,-0.0350952,
1.045,-0.032959,
1.0455,-0.0404358,
1.046,-0.0476074,
1.0465,-0.0376892,
1.047,-0.0163269,
1.0475,-0.000915527,
1.048,0.00976563,
1.0485,0.0195313,
1.049,0.022583,
1.0495,0.00183105,
1.05,-0.0326538,
1.0505,-0.0532532,
1.051,-0.0524902,
1.0515,-0.0396729,
1.052,-0.0280762,
1.0525,-0.0247192,
1.053,-0.0180054,
1.0535,-0.00701904,
1.054,-0.00335693,
1.0545,0,
1.055,0.00198364,
1.0555,-0.00335693,
1.056,-0.0157166,
1.0565,-0.0323486,
1.057,-0.042572,
1.0575,-0.0387573,
1.058,-0.0186157,
1.0585,-0.00488281,
1.059,-0.0248718,
1.0595,-0.0614929,
1.06,-0.0912476,
1.0605,-0.120392,
1.061,-0.138397,
1.0615,-0.140228,
1.062,-0.129852,
1.0625,-0.106659,
1.063,-0.0822449,
1.0635,-0.0695801,
1.064,-0.055542,
1.0645,-0.0236511,
1.065,0.00930786,
1.0655,0.0463867,
1.066,0.0944519,
1.0665,0.132904,
1.067,0.168457,
1.0675,0.19928,
1.068,0.184631,
1.0685,0.116577,
1.069,0.0648499,
1.0695,0.0782776,
1.07,0.128021,
1.0705,0.148468,
1.071,0.105896,
1.0715,0.0302124,
1.072,-0.0308228,
1.0725,-0.078125,
1.073,-0.126953,
1.0735,-0.148621,
1.074,-0.13504,
1.0745,-0.106354,
1.075,-0.0743103,
1.0755,-0.0474548,
1.076,-0.0215149,
1.0765,0.0117493,
1.077,0.0430298,
1.0775,0.0706482,
1.078,0.0889587,
1.0785,0.0901794,
1.079,0.0517273,
1.0795,0.0236511,
1.08,0.00869751,
1.0805,-0.000457764,
1.081,-0.00976563,
1.0815,-0.0221252,
1.082,-0.0276184,
1.0825,-0.0152588,
1.083,0.0190735,
1.0835,0.0500488,
1.084,0.0427246,
1.0845,0.0157166,
1.085,0.0012207,
1.0855,-0.00137329,
1.086,-0.00427246,
1.0865,-0.00595093,
1.087,-0.00961304,
1.0875,-0.0192261,
1.088,-0.0312805,
1.0885,-0.0354004,
1.089,-0.0276184,
1.0895,-0.0193787,
1.09,-0.0163269,
1.0905,-0.0166321,
1.091,-0.0126648,
1.0915,-0.00686646,
1.092,-0.00732422,
1.0925,-0.0126648,
1.093,-0.0151062,
1.0935,-0.0154114,
1.094,-0.017395,
1.0945,-0.0224304,
1.095,-0.0233459,
1.0955,-0.0213623,
1.096,-0.0222778,
1.0965,-0.0205994,
1.097,-0.012207,
1.0975,-0.00473022,
1.098,-0.0050354,
1.0985,-0.0109863,
1.099,-0.0180054,
1.0995,-0.017395,
1.1,-0.0137329,
1.1005,-0.0172424,
1.101,-0.017395,
1.1015,-0.0088501,
1.102,-0.00640869,
1.1025,-0.0102234,
1.103,-0.00961304,
1.1035,0.00305176,
1.104,0.0210571,
1.1045,0.0271606,
1.105,0.0222778,
1.1055,0.0164795,
1.106,0.0140381,
1.1065,0.0102234,
1.107,0.0012207,
1.1075,-0.00961304,
1.108,-0.0242615,
1.1085,-0.043335,
1.109,-0.0552368,
1.1095,-0.0584412,
1.11,-0.0544739,
1.1105,-0.04776,
1.111,-0.0384521,
1.1115,-0.0292969,
1.112,-0.0216675,
1.1125,-0.0222778,
1.113,-0.0105286,
1.1135,0.0151062,
1.114,0.0473022,
1.1145,0.0686646,
1.115,0.0753784,
1.1155,0.0715637,
1.116,0.0619507,
1.1165,0.0500488,
1.117,0.0546265,
1.1175,0.0714111,
1.118,0.0689697,
1.1185,0.050354,
1.119,0.0346375,
1.1195,0.0241089,
1.12,0.0126648,
1.1205,-0.00274658,
1.121,-0.0256348,
1.1215,-0.0492859,
1.122,-0.0653076,
1.1225,-0.0682068,
1.123,-0.0559998,
1.1235,-0.0372314,
1.124,-0.025177,
1.1245,-0.020752,
1.125,-0.017395,
1.1255,-0.0149536,
1.126,-0.00579834,
1.1265,0.00411987,
1.127,0.00442505,
1.1275,-0.00167847,
1.128,-0.00473022,
1.1285,-0.000305176,
1.129,0.0088501,
1.1295,0.01297,
1.13,0.0137329,
1.1305,0.0138855,
1.131,0.012207,
1.1315,0.00991821,
1.132,0.00900269,
1.1325,0.00762939,
1.133,0.00915527,
1.1335,0.00549316,
1.134,-0.00488281,
1.1345,-0.0120544,
1.135,-0.0193787,
1.1355,-0.0234985,
1.136,-0.0227356,
1.1365,-0.0262451,
1.137,-0.0367737,
1.1375,-0.0413513,
1.138,-0.040741,
1.1385,-0.0360107,
1.139,-0.0209045,
1.1395,0.0105286,
1.14,0.0511169,
1.1405,0.0946045,
1.141,0.0914001,
1.1415,0.0498962,
1.142,0.0138855,
1.1425,-0.00411987,
1.143,-0.00152588,
1.1435,0.0209045,
1.144,0.0402832,
1.1445,0.0352478,
1.145,0.0204468,
1.1455,0.00411987,
1.146,-0.00320435,
1.1465,-0.00396729,
1.147,-0.00106812,
1.1475,-0.00961304,
1.148,-0.0254822,
1.1485,-0.0234985,
1.149,-0.0154114,
1.1495,-0.01297,
1.15,-0.0106812,
1.1505,-0.00411987,
1.151,0.00671387,
1.1515,0.014801,
1.152,0.0131226,
1.1525,0.00869751,
1.153,0.00869751,
1.1535,0.0126648,
1.154,0.0231934,
1.1545,0.0312805,
1.155,0.0245667,
1.1555,-0.00579834,
1.156,-0.0395203,
1.1565,-0.0427246,
1.157,-0.0210571,
1.1575,-0.00320435,
1.158,0.00518799,
1.1585,0.0102234,
1.159,0.00457764,
1.1595,-0.00411987,
1.16,-0.0108337,
1.1605,-0.0151062,
1.161,-0.00961304,
1.1615,-0.00335693,
1.162,-0.00183105,
1.1625,-0.00518799,
1.163,-0.0187683,
1.1635,-0.0338745,
1.164,-0.0448608,
1.1645,-0.0476074,
1.165,-0.0466919,
1.1655,-0.0369263,
1.166,-0.018158,
1.1665,0.00411987,
1.167,0.0160217,
1.1675,0.0140381,
1.168,0.00839233,
1.1685,-0.00183105,
1.169,-0.0158691,
1.1695,-0.0247192,
1.17,-0.0209045,
1.1705,-0.015564,
1.171,-0.0141907,
1.1715,-0.0230408,
1.172,-0.032196,
1.1725,-0.0299072,
1.173,-0.0222778,
1.1735,-0.0164795,
1.174,-0.00579834,
1.1745,0.0038147,
1.175,0.00610352,
1.1755,0.000152588,
1.176,-0.00579834,
1.1765,-0.0088501,
1.177,-0.00717163,
1.1775,-0.00610352,
1.178,-0.00610352,
1.1785,-0.00244141,
1.179,0.000457764,
1.1795,0.00167847,
1.18,0.00610352,
1.1805,0.00991821,
1.181,0.00900269,
1.1815,0.0050354,
1.182,0.00732422,
1.1825,0.0146484,
1.183,0.014801,
1.1835,0.0137329,
1.184,0.00793457,
1.1845,-0.0108337,
1.185,-0.0395203,
1.1855,-0.0476074,
1.186,-0.022583,
1.1865,0.00656128,
1.187,0.0134277,
1.1875,0.00488281,
1.188,-0.00137329,
1.1885,-0.00640869,
1.189,-0.010376,
1.1895,-0.00778198,
1.19,-0.000305176,
1.1905,0.00488281,
1.191,0.0062561,
1.1915,0.00411987,
1.192,-0.000610352,
1.1925,-0.00427246,
1.193,-0.00427246,
1.1935,-0.00778198,
1.194,-0.0170898,
1.1945,-0.0180054,
1.195,-0.00869751,
1.1955,-0.00152588,
1.196,0.000915527,
1.1965,-0.00152588,
1.197,-0.00274658,
1.1975,-0.00213623,
1.198,0.0112915,
1.1985,0.022583,
1.199,0.0157166,
1.1995,0,
1.2,-0.010376,
1.2005,-0.0160217,
1.201,-0.0186157,
1.2015,-0.012207,
1.202,-0.00656128,
1.2025,-0.0100708,
1.203,-0.0140381,
1.2035,-0.0189209,
1.204,-0.0259399,
1.2045,-0.0213623,
1.205,0.00305176,
1.2055,0.0410461,
1.206,0.0627136,
1.2065,0.0537109,
1.207,0.027771,
1.2075,-0.000762939,
1.208,-0.0166321,
1.2085,-0.0196838,
1.209,-0.00930786,
1.2095,0.00137329,
1.21,0.00488281,
1.2105,-0.00518799,
1.211,-0.0167847,
1.2115,-0.0169373,
1.212,-0.0102234,
1.2125,0.00686646,
1.213,0.0288391,
1.2135,0.0494385,
1.214,0.0532532,
1.2145,0.0500488,
1.215,0.0512695,
1.2155,0.0492859,
1.216,0.0337219,
1.2165,0.0166321,
1.217,0.00900269,
1.2175,0.00656128,
1.218,0.0062561,
1.2185,0.00640869,
1.219,0.00778198,
1.2195,0.00518799,
1.22,-0.00350952,
1.2205,-0.00900269,
1.221,-0.0158691,
1.2215,-0.0257874,
1.222,-0.0369263,
1.2225,-0.0544739,
1.223,-0.0737,
1.2235,-0.0883484,
1.224,-0.0958252,
1.2245,-0.0946045,
1.225,-0.0868225,
1.2255,-0.0735474,
1.226,-0.0628662,
1.2265,-0.0517273,
1.227,-0.0393677,
1.2275,-0.0236511,
1.228,0.0012207,
1.2285,0.0279236,
1.229,0.0579834,
1.2295,0.088501,
1.23,0.124969,
1.2305,0.154877,
1.231,0.148315,
1.2315,0.106201,
1.232,0.0636292,
1.2325,0.0404358,
1.233,0.0274658,
1.2335,0.0175476,
1.234,0.00900269,
1.2345,0.000457764,
1.235,-0.00717163,
1.2355,-0.0131226,
1.236,-0.0114441,
1.2365,-0.00473022,
1.237,-0.00198364,
1.2375,-0.00442505,
1.238,-0.00869751,
1.2385,-0.0105286,
1.239,-0.0106812,
1.2395,-0.0128174,
1.24,-0.0166321,
1.2405,-0.0247192,
1.241,-0.0343323,
1.2415,-0.0334167,
1.242,-0.0198364,
1.2425,-0.00228882,
1.243,-0.00137329,
1.2435,-0.0364685,
1.244,-0.0950623,
1.2445,-0.139465,
1.245,-0.155182,
1.2455,-0.16571,
1.246,-0.194397,
1.2465,-0.235138,
1.247,-0.252838,
1.2475,-0.236664,
1.248,-0.215454,
1.2485,-0.201874,
1.249,-0.184784,
1.2495,-0.150757,
1.25,-0.0967407,
1.2505,-0.0193787,
1.251,0.0720215,
1.2515,0.145874,
1.252,0.173798,
1.2525,0.166626,
1.253,0.178833,
1.2535,0.213928,
1.254,0.263977,
1.2545,0.313416,
1.255,0.334167,
1.2555,0.325928,
1.256,0.310822,
1.2565,0.295105,
1.257,0.263062,
1.2575,0.215149,
1.258,0.169678,
1.2585,0.125122,
1.259,0.0785828,
1.2595,0.035553,
1.26,0.00167847,
1.2605,-0.0212097,
1.261,-0.0291443,
1.2615,-0.0300598,
1.262,-0.0198364,
1.2625,0.0154114,
1.263,0.0587463,
1.2635,0.0810242,
1.264,0.0570679,
1.2645,-0.00823975,
1.265,-0.0538635,
1.2655,-0.0526428,
1.266,-0.043335,
1.2665,-0.0547791,
1.267,-0.0682068,
1.2675,-0.0579834,
1.268,-0.0517273,
1.2685,-0.0830078,
1.269,-0.13504,
1.2695,-0.17334,
1.27,-0.19455,
1.2705,-0.205994,
1.271,-0.197754,
1.2715,-0.154419,
1.272,-0.0930786,
1.2725,-0.0535583,
1.273,-0.0495911,
1.2735,-0.059967,
1.274,-0.0595093,
1.2745,-0.0434875,
1.275,-0.00778198,
1.2755,0.0434875,
1.276,0.0848389,
1.2765,0.101318,
1.277,0.0810242,
1.2775,0.0476074,
1.278,0.0357056,
1.2785,0.0358582,
1.279,0.0143433,
1.2795,-0.0193787,
1.28,-0.0430298,
1.2805,-0.0531006,
1.281,-0.0415039,
1.2815,-0.00595093,
1.282,0.0305176,
1.2825,0.0352478,
1.283,0.0144958,
1.2835,-0.0128174,
1.284,-0.0302124,
1.2845,-0.0283813,
1.285,-0.0187683,
1.2855,-0.019989,
1.286,-0.0302124,
1.2865,-0.0421143,
1.287,-0.0506592,
1.2875,-0.0521851,
1.288,-0.0473022,
1.2885,-0.0444031,
1.289,-0.0439453,
1.2895,-0.0401306,
1.29,-0.0222778,
1.2905,0.00976563,
1.291,0.0138855,
1.2915,0.0109863,
1.292,0.0416565,
1.2925,0.0500488,
1.293,0.015564,
1.2935,-0.0115967,
1.294,-0.0157166,
1.2945,-0.0210571,
1.295,-0.0363159,
1.2955,-0.0439453,
1.296,-0.0408936,
1.2965,-0.0384521,
1.297,-0.0372314,
1.2975,-0.032959,
1.298,-0.0300598,
1.2985,-0.0166321,
1.299,0.018158,
1.2995,0.0440979,
1.3,0.0370789,
1.3005,0.0158691,
1.301,0.00762939,
1.3015,0.0196838,
1.302,0.0398254,
1.3025,0.0431824,
1.303,0.0234985,
1.3035,-0.00427246,
1.304,-0.0338745,
1.3045,-0.0636292,
1.305,-0.083313,
1.3055,-0.0863647,
1.306,-0.0782776,
1.3065,-0.0662231,
1.307,-0.0505066,
1.3075,-0.0299072,
1.308,-0.0106812,
1.3085,0.00350952,
1.309,0.0117493,
1.3095,0.00350952,
1.31,-0.0119019,
1.3105,-0.0163269,
1.311,-0.0105286,
1.3115,-0.0100708,
1.312,-0.0131226,
1.3125,-0.0119019,
1.313,-0.00991821,
1.3135,-0.0141907,
1.314,-0.0109863,
1.3145,0.00869751,
1.315,0.0274658,
1.3155,0.03479,
1.316,0.0358582,
1.3165,0.0358582,
1.317,0.0372314,
1.3175,0.0506592,
1.318,0.0717163,
1.3185,0.100098,
1.319,0.118866,
1.3195,0.109863,
1.32,0.0842285,
1.3205,0.0613403,
1.321,0.0431824,
1.3215,0.0228882,
1.322,0.00335693,
1.3225,-0.00274658,
1.323,-0.0038147,
1.3235,-0.00976563,
1.324,-0.01297,
1.3245,-0.0167847,
1.325,-0.0205994,
1.3255,-0.0186157,
1.326,-0.0257874,
1.3265,-0.0471497,
1.327,-0.0572205,
1.3275,-0.0436401,
1.328,-0.0108337,
1.3285,-0.00564575,
1.329,-0.0375366,
1.3295,-0.0563049,
1.33,-0.032959,
1.3305,-0.00228882,
1.331,-0.000457764,
1.3315,-0.00793457,
1.332,-0.00961304,
1.3325,-0.0134277,
1.333,-0.0178528,
1.3335,-0.0216675,
1.334,-0.0228882,
1.3345,-0.0209045,
1.335,-0.0189209,
1.3355,-0.0184631,
1.336,-0.020752,
1.3365,-0.0178528,
1.337,-0.0125122,
1.3375,-0.00579834,
1.338,0.00274658,
1.3385,0.0106812,
1.339,0.018158,
1.3395,0.0236511,
1.34,0.0239563,
1.3405,0.0219727,
1.341,0.0219727,
1.3415,0.0245667,
1.342,0.0285339,
1.3425,0.0267029,
1.343,0.0212097,
1.3435,0.0161743,
1.344,0.0158691,
1.3445,0.0141907,
1.345,0.0088501,
1.3455,-0.000457764,
1.346,-0.0189209,
1.3465,-0.0517273,
1.347,-0.0973511,
1.3475,-0.162506,
1.348,-0.233002,
1.3485,-0.287933,
1.349,-0.332794,
1.3495,-0.349884,
1.35,-0.323944,
1.3505,-0.301819,
1.351,-0.285797,
1.3515,-0.208282,
1.352,-0.0897217,
1.3525,0,
1.353,0.0856018,
1.3535,0.205688,
1.354,0.333405,
1.3545,0.401917,
1.355,0.389404,
1.3555,0.339661,
1.356,0.302124,
1.3565,0.304413,
1.357,0.32608,
1.3575,0.33371,
1.358,0.32074,
1.3585,0.283203,
1.359,0.225677,
1.3595,0.179596,
1.36,0.149231,
1.3605,0.116272,
1.361,0.0790405,
1.3615,0.0379944,
1.362,0.0050354,
1.3625,0.00518799,
1.363,0.0292969,
1.3635,0.0444031,
1.364,0.0273132,
1.3645,-0.00946045,
1.365,-0.0340271,
1.3655,-0.0337219,
1.366,-0.0286865,
1.3665,-0.0309753,
1.367,-0.0352478,
1.3675,-0.0395203,
1.368,-0.0448608,
1.3685,-0.0517273,
1.369,-0.0575256,
1.3695,-0.0608826,
1.37,-0.0469971,
1.3705,-0.027771,
1.371,-0.0192261,
1.3715,-0.00900269,
1.372,0.00656128,
1.3725,-0.00106812,
1.373,-0.0382996,
1.3735,-0.0752258,
1.374,-0.0927734,
1.3745,-0.109558,
1.375,-0.11261,
1.3755,-0.0854492,
1.376,-0.0462341,
1.3765,-0.0212097,
1.377,-0.00717163,
1.3775,0.0109863,
1.378,0.0588989,
1.3785,0.13855,
1.379,0.161285,
1.3795,0.0942993,
1.38,-0.0112915,
1.3805,-0.137787,
1.381,-0.26062,
1.3815,-0.32547,
1.382,-0.330353,
1.3825,-0.298462,
1.383,-0.239563,
1.3835,-0.159912,
1.384,-0.0730896,
1.3845,-0.0120544,
1.385,0.0506592,
1.3855,0.166321,
1.386,0.284119,
1.3865,0.320892,
1.387,0.255127,
1.3875,0.139771,
1.388,0.0268555,
1.3885,-0.0563049,
1.389,-0.098114,
1.3895,-0.115356,
1.39,-0.119934,
1.3905,-0.134125,
1.391,-0.154419,
1.3915,-0.144043,
1.392,-0.0987244,
1.3925,-0.0662231,
1.393,-0.0697327,
1.3935,-0.0909424,
1.394,-0.0979614,
1.3945,-0.0790405,
1.395,-0.0552368,
1.3955,-0.0527954,
1.396,-0.0547791,
1.3965,-0.0341797,
1.397,-0.0138855,
1.3975,-0.0164795,
1.398,-0.0285339,
1.3985,-0.032196,
1.399,-0.0309753,
1.3995,-0.0259399,
1.4,-0.00823975,
1.4005,0.0161743,
1.401,0.0270081,
1.4015,0.0205994,
1.402,0.0115967,
1.4025,0.00946045,
1.403,0.0192261,
1.4035,0.035553,
1.404,0.0523376,
1.4045,0.0798035,
1.405,0.104218,
1.4055,0.104675,
1.406,0.0849915,
1.4065,0.0660706,
1.407,0.0567627,
1.4075,0.0479126,
1.408,0.0334167,
1.4085,0.0224304,
1.409,0.0151062,
1.4095,-0.00137329,
1.41,-0.0230408,
1.4105,-0.0382996,
1.411,-0.042572,
1.4115,-0.0479126,
1.412,-0.0744629,
1.4125,-0.111237,
1.413,-0.11734,
1.4135,-0.0775146,
1.414,-0.022583,
1.4145,0.0195313,
1.415,0.0393677,
1.4155,0.0450134,
1.416,0.0502014,
1.4165,0.0518799,
1.417,0.0486755,
1.4175,0.0402832,
1.418,0.040741,
1.4185,0.0367737,
1.419,0.0106812,
1.4195,-0.0184631,
1.42,-0.0234985,
1.4205,-0.0161743,
1.421,-0.0151062,
1.4215,-0.0177002,
1.422,-0.00976563,
1.4225,0.0183105,
1.423,0.0672913,
1.4235,0.0982666,
1.424,0.0964355,
1.4245,0.08255,
1.425,0.0634766,
1.4255,0.0474548,
1.426,0.0263977,
1.4265,0.0157166,
1.427,0.0192261,
1.4275,0.0190735,
1.428,0.0292969,
1.4285,0.0512695,
1.429,0.0492859,
1.4295,0.0111389,
1.43,-0.0187683,
1.4305,-0.019989,
1.431,-0.0386047,
1.4315,-0.0857544,
1.432,-0.130768,
1.4325,-0.150452,
1.433,-0.141754,
1.4335,-0.12558,
1.434,-0.125275,
1.4345,-0.105286,
1.435,-0.0436401,
1.4355,0.0320435,
1.436,0.0808716,
1.4365,0.0779724,
1.437,0.0372314,
1.4375,-0.00854492,
1.438,-0.0424194,
1.4385,-0.0614929,
1.439,-0.0598145,
1.4395,-0.0311279,
1.44,0.00823975,
1.4405,0.0350952,
1.441,0.0578308,
1.4415,0.0720215,
1.442,0.0602722,
1.4425,0.0289917,
1.443,0.000305176,
1.4435,-0.00717163,
1.444,-0.0172424,
1.4445,-0.0361633,
1.445,-0.0366211,
1.4455,-0.0128174,
1.446,0.00152588,
1.4465,0.00808716,
1.447,0.0346375,
1.4475,0.0933838,
1.448,0.117188,
1.4485,0.0648499,
1.449,0.00930786,
1.4495,0.0119019,
1.45,0.0106812,
1.4505,-0.0370789,
1.451,-0.0564575,
1.4515,-0.0187683,
1.452,0.0239563,
1.4525,0.0276184,
1.453,0.0038147,
1.4535,-0.0233459,
1.454,-0.055542,
1.4545,-0.0679016,
1.455,-0.0442505,
1.4555,0.00167847,
1.456,0.0524902,
1.4565,0.0901794,
1.457,0.108643,
1.4575,0.102234,
1.458,0.0775146,
1.4585,0.0416565,
1.459,0.00595093,
1.4595,-0.0216675,
1.46,-0.0515747,
1.4605,-0.0860596,
1.461,-0.0965881,
1.4615,-0.0741577,
1.462,-0.0575256,
1.4625,-0.0601196,
1.463,-0.050354,
1.4635,-0.0363159,
1.464,-0.0378418,
1.4645,-0.0320435,
1.465,-0.0270081,
1.4655,-0.0236511,
1.466,-0.00366211,
1.4665,0.0166321,
1.467,0.0241089,
1.4675,0.020752,
1.468,0.012207,
1.4685,-0.00411987,
1.469,-0.0230408,
1.4695,-0.040741,
1.47,-0.0396729,
1.4705,-0.0109863,
1.471,0.032959,
1.4715,0.0694275,
1.472,0.0863647,
1.4725,0.0917053,
1.473,0.0939941,
1.4735,0.0875854,
1.474,0.0759888,
1.4745,0.0723267,
1.475,0.0704956,
1.4755,0.0665283,
1.476,0.0460815,
1.4765,-0.0100708,
1.477,-0.0921631,
1.4775,-0.132599,
1.478,-0.102844,
1.4785,-0.0517273,
1.479,-0.0268555,
1.4795,-0.0193787,
1.48,-0.0202942,
1.4805,-0.0302124,
1.481,-0.0367737,
1.4815,-0.0257874,
1.482,-0.0140381,
1.4825,-0.0134277,
1.483,0.00335693,
1.4835,0.0288391,
1.484,0.0344849,
1.4845,0.0172424,
1.485,-0.00976563,
1.4855,-0.0242615,
1.486,-0.0218201,
1.4865,-0.0201416,
1.487,-0.0325012,
1.4875,-0.0512695,
1.488,-0.0402832,
1.4885,0.00183105,
1.489,0.0344849,
1.4895,0.043335,
1.49,0.0378418,
1.4905,0.065918,
1.491,0.111237,
1.4915,0.10849,
1.492,0.0695801,
1.4925,0.0308228,
1.493,0.0125122,
1.4935,0.0132751,
1.494,0.0160217,
1.4945,0.00823975,
1.495,-0.020752,
1.4955,-0.0628662,
1.496,-0.0990295,
1.4965,-0.117188,
1.497,-0.0883484,
1.4975,-0.0340271,
1.498,-0.00900269,
1.4985,-0.0128174,
1.499,-0.0224304,
1.4995,-0.0408936,
1.5,-0.0700378,
1.5005,-0.0909424,
1.501,-0.0863647,
1.5015,-0.0698853,
1.502,-0.0254822,
1.5025,0.0262451,
1.503,0.057373,
1.5035,0.103607,
1.504,0.145874,
1.5045,0.0994873,
1.505,-0.00915527,
1.5055,-0.0708008,
1.506,-0.0854492,
1.5065,-0.114746,
1.507,-0.147095,
1.5075,-0.125275,
1.508,-0.0360107,
1.5085,0.0813293,
1.509,0.15564,
1.5095,0.168457,
1.51,0.150299,
1.5105,0.110168,
1.511,0.0576782,
1.5115,0.0105286,
1.512,-0.0218201,
1.5125,-0.0309753,
1.513,-0.0463867,
1.5135,-0.0843811,
1.514,-0.114136,
1.5145,-0.128937,
1.515,-0.118561,
1.5155,-0.057373,
1.516,0.0276184,
1.5165,0.0772095,
1.517,0.096283,
1.5175,0.0918579,
1.518,0.0415039,
1.5185,-0.0419617,
1.519,-0.0704956,
1.5195,-0.0366211,
1.52,-0.0375366,
1.5205,-0.0740051,
1.521,-0.0708008,
1.5215,-0.0239563,
1.522,0.00259399,
1.5225,0.00549316,
1.523,0.0184631,
1.5235,0.0404358,
1.524,0.0610352,
1.5245,0.0395203,
1.525,-0.0283813,
1.5255,-0.0674438,
1.526,-0.0288391,
1.5265,0.022583,
1.527,0.0187683,
1.5275,-0.0256348,
1.528,-0.0396729,
1.5285,-0.015564,
1.529,0.0117493,
1.5295,0.0280762,
1.53,0.0540161,
1.5305,0.0839233,
1.531,0.0921631,
1.5315,0.065155,
1.532,0.0195313,
1.5325,-0.00442505,
1.533,0.0137329,
1.5335,0.0263977,
1.534,0.0437927,
1.5345,0.0794983,
1.535,0.062561,
1.5355,-0.00152588,
1.536,-0.0244141,
1.5365,0,
1.537,-0.022583,
1.5375,-0.105743,
1.538,-0.128937,
1.5385,-0.0428772,
1.539,0.0521851,
1.5395,0.101166,
1.54,0.124664,
1.5405,0.0973511,
1.541,0.0361633,
1.5415,-0.0195313,
1.542,-0.0650024,
1.5425,-0.102386,
1.543,-0.101166,
1.5435,-0.0523376,
1.544,-0.000915527,
1.5445,0.0152588,
1.545,0.00732422,
1.5455,0.00762939,
1.546,0.012207,
1.5465,0.00457764,
1.547,-0.00228882,
1.5475,-0.0408936,
1.548,-0.132294,
1.5485,-0.20752,
1.549,-0.218048,
1.5495,-0.149536,
1.55,-0.0497437,
1.5505,0.010376,
1.551,0.0204468,
1.5515,0.0288391,
1.552,0.0514221,
1.5525,0.0556946,
1.553,0.0241089,
1.5535,-0.01297,
1.554,-0.0117493,
1.5545,0.012207,
1.555,0.0236511,
1.5555,0.0285339,
1.556,0.0387573,
1.5565,0.0544739,
1.557,0.0604248,
1.5575,0.039978,
1.558,0.0158691,
1.5585,-0.00793457,
1.559,-0.0358582,
1.5595,-0.0624084,
1.56,-0.0746155,
1.5605,-0.0727844,
1.561,-0.0743103,
1.5615,-0.0669861,
1.562,-0.030365,
1.5625,0.00823975,
1.563,0.00854492,
1.5635,-0.0244141,
1.564,-0.0657654,
1.5645,-0.0787354,
1.565,-0.0393677,
1.5655,0.012207,
1.566,0.0279236,
1.5665,0.0204468,
1.567,0.030365,
1.5675,0.039978,
1.568,0.0343323,
1.5685,0.0328064,
1.569,0.04776,
1.5695,0.068512,
1.57,0.0770569,
1.5705,0.0753784,
1.571,0.065155,
1.5715,0.057373,
1.572,0.0637817,
1.5725,0.0787354,
1.573,0.0866699,
1.5735,0.0730896,
1.574,0.0572205,
1.5745,0.0506592,
1.575,0.0582886,
1.5755,0.0675964,
1.576,0.040741,
1.5765,-0.00915527,
1.577,-0.0479126,
1.5775,-0.0413513,
1.578,0.00427246,
1.5785,0.0088501,
1.579,-0.0437927,
1.5795,-0.0860596,
1.58,-0.0839233,
1.5805,-0.0735474,
1.581,-0.0769043,
1.5815,-0.0750732,
1.582,-0.0520325,
1.5825,-0.0297546,
1.583,-0.0112915,
1.5835,0.0364685,
1.584,0.0454712,
1.5845,-0.0460815,
1.585,-0.156708,
1.5855,-0.188446,
1.586,-0.130615,
1.5865,-0.0215149,
1.587,0.0749207,
1.5875,0.129089,
1.588,0.127563,
1.5885,0.0924683,
1.589,0.0642395,
1.5895,0.0817871,
1.59,0.111542,
1.5905,0.0828552,
1.591,0.0520325,
1.5915,0.070343,
1.592,0.0849915,
1.5925,0.0686646,
1.593,0.0819397,
1.5935,0.146942,
1.594,0.163116,
1.5945,0.1091,
1.595,0.010376,
1.5955,-0.102386,
1.596,-0.186615,
1.5965,-0.200348,
1.597,-0.164642,
1.5975,-0.113525,
1.598,-0.0323486,
1.5985,0.0280762,
1.599,0.0167847,
1.5995,0,
1.6,0.0138855,
1.6005,0.038147,
1.601,0.0765991,
1.6015,0.128021,
1.602,0.140533,
1.6025,0.120392,
1.603,0.112762,
1.6035,0.131836,
1.604,0.13092,
1.6045,0.0721741,
1.605,-0.0178528,
1.6055,-0.0982666,
1.606,-0.147705,
1.6065,-0.180664,
1.607,-0.1651,
1.6075,-0.0921631,
1.608,-0.0280762,
1.6085,-0.0210571,
1.609,-0.0302124,
1.6095,-0.00991821,
1.61,0.019989,
1.6105,0.0248718,
1.611,0.0367737,
1.6115,0.0914001,
1.612,0.130768,
1.6125,0.0784302,
1.613,-0.0521851,
1.6135,-0.225372,
1.614,-0.385437,
1.6145,-0.391388,
1.615,-0.245209,
1.6155,-0.0775146,
1.616,-0.0187683,
1.6165,-0.0907898,
1.617,-0.191193,
1.6175,-0.19516,
1.618,-0.118408,
1.6185,-0.0471497,
1.619,-0.0247192,
1.6195,-0.0271606,
1.62,-0.010376,
1.6205,0.0109863,
1.621,0.0187683,
1.6215,0.0154114,
1.622,-0.000762939,
1.6225,-0.0157166,
1.623,-0.00549316,
1.6235,0.0157166,
1.624,0.0308228,
1.6245,0.0402832,
1.625,0.0515747,
1.6255,0.0726318,
1.626,0.112305,
1.6265,0.146332,
1.627,0.145721,
1.6275,0.11261,
1.628,0.0691223,
1.6285,0.0553894,
1.629,0.0733948,
1.6295,0.0836182,
1.63,0.065155,
1.6305,0.0216675,
1.631,-0.0514221,
1.6315,-0.110626,
1.632,-0.0880432,
1.6325,-0.0210571,
1.633,0.035553,
1.6335,0.0810242,
1.634,0.0953674,
1.6345,0.0674438,
1.635,0.0450134,
1.6355,0.0531006,
1.636,0.0558472,
1.6365,0.0305176,
1.637,0.00106812,
1.6375,-0.0157166,
1.638,-0.0160217,
1.6385,-0.0178528,
1.639,-0.025177,
1.6395,-0.00579834,
1.64,0.0257874,
1.6405,0.032196,
1.641,0.0544739,
1.6415,0.123749,
1.642,0.176849,
1.6425,0.182648,
1.643,0.169525,
1.6435,0.116425,
1.644,0.00854492,
1.6445,-0.0830078,
1.645,-0.0921631,
1.6455,-0.0712585,
1.646,-0.0881958,
1.6465,-0.120087,
1.647,-0.111542,
1.6475,-0.0892639,
1.648,-0.118713,
1.6485,-0.188446,
1.649,-0.252228,
1.6495,-0.275269,
1.65,-0.218658,
1.6505,-0.133362,
1.651,-0.0778198,
1.6515,-0.0465393,
1.652,-0.020752,
1.6525,0.000152588,
1.653,0.00793457,
1.6535,0.0117493,
1.654,-0.00518799,
1.6545,-0.0500488,
1.655,-0.0874329,
1.6555,-0.0976563,
1.656,-0.0643921,
1.6565,-0.0164795,
1.657,0.00518799,
1.6575,-0.0263977,
1.658,-0.0827026,
1.6585,-0.0935364,
1.659,-0.00991821,
1.6595,0.106659,
1.66,0.131836,
1.6605,0.0732422,
1.661,0.0527954,
1.6615,0.0834656,
1.662,0.0923157,
1.6625,0.0637817,
1.663,0.0311279,
1.6635,0.017395,
1.664,0.030365,
1.6645,0.0382996,
1.665,0.0216675,
1.6655,0.0102234,
1.666,0.0201416,
1.6665,0.0396729,
1.667,0.0575256,
1.6675,0.0891113,
1.668,0.147095,
1.6685,0.206909,
1.669,0.218506,
1.6695,0.187378,
1.67,0.165863,
1.6705,0.141144,
1.671,0.0674438,
1.6715,-0.0601196,
1.672,-0.182495,
1.6725,-0.22644,
1.673,-0.196686,
1.6735,-0.128326,
1.674,-0.0521851,
1.6745,0.00457764,
1.675,0.0520325,
1.6755,0.0927734,
1.676,0.101166,
1.6765,0.0752258,
1.677,0.0405884,
1.6775,0.0279236,
1.678,0.038147,
1.6785,0.043335,
1.679,0.0286865,
1.6795,0.00183105,
1.68,-0.0219727,
1.6805,-0.0427246,
1.681,-0.0648499,
1.6815,-0.0650024,
1.682,-0.0253296,
1.6825,0.0262451,
1.683,0.0704956,
1.6835,0.105286,
1.684,0.128937,
1.6845,0.120392,
1.685,0.0695801,
1.6855,-0.00213623,
1.686,-0.0537109,
1.6865,-0.0848389,
1.687,-0.0949097,
1.6875,-0.0671387,
1.688,-0.0192261,
1.6885,0.0167847,
1.689,0.0332642,
1.6895,0.0506592,
1.69,0.0680542,
1.6905,0.0457764,
1.691,0.0213623,
1.6915,0.0172424,
1.692,0.00335693,
1.6925,-0.0312805,
1.693,-0.0695801,
1.6935,-0.102844,
1.694,-0.0892639,
1.6945,-0.0149536,
1.695,0.0312805,
1.6955,-0.017395,
1.696,-0.0904846,
1.6965,-0.110016,
1.697,-0.0764465,
1.6975,-0.017395,
1.698,0.0608826,
1.6985,0.114899,
1.699,0.118256,
1.6995,0.085907,
1.7,0.0337219,
1.7005,-0.0210571,
1.701,-0.0952148,
1.7015,-0.149841,
1.702,-0.105743,
1.7025,-0.0267029,
1.703,-0.0410461,
1.7035,-0.145721,
1.704,-0.229187,
1.7045,-0.24353,
1.705,-0.204773,
1.7055,-0.139923,
1.706,-0.0846863,
1.7065,-0.0543213,
1.707,-0.0111389,
1.7075,0.0404358,
1.708,0.0636292,
1.7085,0.0700378,
1.709,0.0794983,
1.7095,0.0694275,
1.71,0.0135803,
1.7105,-0.0379944,
1.711,-0.0679016,
1.7115,-0.115509,
1.712,-0.140686,
1.7125,-0.124359,
1.713,-0.0987244,
1.7135,-0.0785828,
1.714,-0.0474548,
1.7145,-0.00869751,
1.715,0.0160217,
1.7155,0.00473022,
1.716,-0.0369263,
1.7165,-0.0398254,
1.717,0.0317383,
1.7175,0.152435,
1.718,0.25116,
1.7185,0.243073,
1.719,0.162964,
1.7195,0.15625,
1.72,0.207977,
1.7205,0.18219,
1.721,0.0656128,
1.7215,-0.0364685,
1.722,-0.0793457,
1.7225,-0.0958252,
1.723,-0.093689,
1.7235,-0.0787354,
1.724,-0.0868225,
1.7245,-0.0958252,
1.725,-0.0636292,
1.7255,-0.0274658,
1.726,-0.0265503,
1.7265,-0.0270081,
1.727,-0.000457764,
1.7275,0.0282288,
1.728,0.040741,
1.7285,0.0379944,
1.729,0.030365,
1.7295,0.027771,
1.73,0.0231934,
1.7305,0.0190735,
1.731,0.0238037,
1.7315,0.0213623,
1.732,0.0088501,
1.7325,0.032959,
1.733,0.0923157,
1.7335,0.13031,
1.734,0.11734,
1.7345,0.0743103,
1.735,0.0218201,
1.7355,-0.0302124,
1.736,-0.0469971,
1.7365,-0.0283813,
1.737,-0.000457764,
1.7375,0.0270081,
1.738,0.0592041,
1.7385,0.075531,
1.739,0.0450134,
1.7395,0.0138855,
1.74,0.0219727,
1.7405,0.0395203,
1.741,0.0308228,
1.7415,0.00289917,
1.742,-0.020752,
1.7425,-0.032959,
1.743,-0.0474548,
1.7435,-0.0614929,
1.744,-0.100708,
1.7445,-0.157928,
1.745,-0.16922,
1.7455,-0.136871,
1.746,-0.121765,
1.7465,-0.147705,
1.747,-0.150909,
1.7475,-0.0849915,
1.748,0.0143433,
1.7485,0.101318,
1.749,0.172882,
1.7495,0.227661,
1.75,0.244598,
1.7505,0.223694,
1.751,0.17746,
1.7515,0.113678,
1.752,0.0762939,
1.7525,0.133362,
1.753,0.230713,
1.7535,0.212555,
1.754,0.0796509,
1.7545,-0.037384,
1.755,-0.103455,
1.7555,-0.147552,
1.756,-0.196838,
1.7565,-0.230713,
1.757,-0.220337,
1.7575,-0.192719,
1.758,-0.158691,
1.7585,-0.123749,
1.759,-0.123596,
1.7595,-0.157928,
1.76,-0.153198,
1.7605,-0.0787354,
1.761,0.00915527,
1.7615,0.0784302,
1.762,0.122375,
1.7625,0.143127,
1.763,0.161591,
1.7635,0.180817,
1.764,0.170288,
1.7645,0.106049,
1.765,0.0326538,
1.7655,-0.00686646,
1.766,-0.0466919,
1.7665,-0.134125,
1.767,-0.267792,
1.7675,-0.365906,
1.768,-0.32135,
1.7685,-0.143433,
1.769,0.0366211,
1.7695,0.14389,
1.77,0.177155,
1.7705,0.104523,
1.771,-0.00747681,
1.7715,-0.0639343,
1.772,-0.0628662,
1.7725,-0.0602722,
1.773,-0.121155,
1.7735,-0.196381,
1.774,-0.173645,
1.7745,-0.0631714,
1.775,0.0141907,
1.7755,0.0418091,
1.776,0.0956726,
1.7765,0.182037,
1.777,0.25589,
1.7775,0.295715,
1.778,0.287018,
1.7785,0.242004,
1.779,0.197449,
1.7795,0.152435,
1.78,0.0947571,
1.7805,0.0968933,
1.781,0.156403,
1.7815,0.219269,
1.782,0.245819,
1.7825,0.181732,
1.783,0.0323486,
1.7835,-0.0631714,
1.784,-0.0933838,
1.7845,-0.180206,
1.785,-0.265961,
1.7855,-0.25238,
1.786,-0.191498,
1.7865,-0.172577,
1.787,-0.167389,
1.7875,-0.134125,
1.788,-0.114288,
1.7885,-0.118713,
1.789,-0.101929,
1.7895,-0.0564575,
1.79,-0.0213623,
1.7905,-0.00747681,
1.791,0.00289917,
1.7915,-0.00244141,
1.792,-0.038147,
1.7925,-0.114746,
1.793,-0.201111,
1.7935,-0.245514,
1.794,-0.229797,
1.7945,-0.164642,
1.795,-0.101318,
1.7955,-0.0794983,
1.796,-0.0413513,
1.7965,0.038147,
1.797,0.110016,
1.7975,0.108643,
1.798,0.0289917,
1.7985,0.00137329,
1.799,0.0828552,
1.7995,0.162964,
1.8,0.133514,
1.8005,0.0442505,
1.801,-0.0169373,
1.8015,-0.0222778,
1.802,-0.00823975,
1.8025,-0.0102234,
1.803,-0.0149536,
1.8035,-0.015564,
1.804,-0.0265503,
1.8045,-0.037384,
1.805,-0.0227356,
1.8055,-0.00900269,
1.806,-0.00152588,
1.8065,0.00930786,
1.807,0.0213623,
1.8075,0.022583,
1.808,0.0508118,
1.8085,0.106812,
1.809,0.152588,
1.8095,0.151825,
1.81,0.0927734,
1.8105,0.0328064,
1.811,0.0205994,
1.8115,0.0236511,
1.812,-0.0144958,
1.8125,-0.0923157,
1.813,-0.141754,
1.8135,-0.109863,
1.814,-0.0485229,
1.8145,-0.015564,
1.815,-0.00564575,
1.8155,-0.00808716,
1.816,-0.0250244,
1.8165,-0.0456238,
1.817,-0.0592041,
1.8175,-0.0436401,
1.818,0.0161743,
1.8185,0.0779724,
1.819,0.118561,
1.8195,0.129852,
1.82,0.101929,
1.8205,0.0515747,
1.821,0.0285339,
1.8215,0.0489807,
1.822,0.0918579,
1.8225,0.128479,
1.823,0.120087,
1.8235,0.0846863,
1.824,0.0846863,
1.8245,0.126495,
1.825,0.139771,
1.8255,0.110168,
1.826,0.0663757,
1.8265,-0.0213623,
1.827,-0.159149,
1.8275,-0.243683,
1.828,-0.217133,
1.8285,-0.140228,
1.829,-0.0617981,
1.8295,-0.0366211,
1.83,-0.0619507,
1.8305,-0.0730896,
1.831,-0.0486755,
1.8315,-0.0169373,
1.832,-0.0126648,
1.8325,-0.0244141,
1.833,-0.0259399,
1.8335,-0.0062561,
1.834,0.0114441,
1.8345,0.0062561,
1.835,-0.00686646,
1.8355,-0.00274658,
1.836,0.0215149,
1.8365,0.0592041,
1.837,0.0888062,
1.8375,0.0959778,
1.838,0.0871277,
1.8385,0.0628662,
1.839,0.0439453,
1.8395,0.0126648,
1.84,-0.0210571,
1.8405,-0.0257874,
1.841,0.0201416,
1.8415,0.0895691,
1.842,0.111694,
1.8425,0.0773621,
1.843,0.0436401,
1.8435,0.00732422,
1.844,-0.0440979,
1.8445,-0.0437927,
1.845,0.00534058,
1.8455,0.00259399,
1.846,-0.0776672,
1.8465,-0.132446,
1.847,-0.105591,
1.8475,-0.0634766,
1.848,-0.0158691,
1.8485,0.0624084,
1.849,0.110474,
1.8495,0.10437,
1.85,0.0878906,
1.8505,0.0689697,
1.851,0.04776,
1.8515,0.071106,
1.852,0.130005,
1.8525,0.161743,
1.853,0.102844,
1.8535,-0.0227356,
1.854,-0.0816345,
1.8545,-0.0135803,
1.855,0.105591,
1.8555,0.182343,
1.856,0.184631,
1.8565,0.139923,
1.857,0.0614929,
1.8575,0.0296021,
1.858,0.0535583,
1.8585,0.00915527,
1.859,-0.108337,
1.8595,-0.167847,
1.86,-0.136719,
1.8605,-0.0804138,
1.861,-0.0776672,
1.8615,-0.206451,
1.862,-0.432129,
1.8625,-0.524445,
1.863,-0.336456,
1.8635,-0.0932312,
1.864,-0.0213623,
1.8645,-0.0622559,
1.865,-0.0830078,
1.8655,-0.0669861,
1.866,-0.0723267,
1.8665,-0.12085,
1.867,-0.189819,
1.8675,-0.25177,
1.868,-0.250549,
1.8685,-0.160065,
1.869,-0.0370789,
1.8695,0.0318909,
1.87,0.0492859,
1.8705,0.0709534,
1.871,0.101776,
1.8715,0.136108,
1.872,0.163879,
1.8725,0.163422,
1.873,0.134125,
1.8735,0.0704956,
1.874,-0.0189209,
1.8745,-0.0141907,
1.875,0.0497437,
1.8755,0.0216675,
1.876,-0.085907,
1.8765,-0.171204,
1.877,-0.17746,
1.8775,-0.10498,
1.878,-0.0306702,
1.8785,-0.0123596,
1.879,-0.0375366,
1.8795,-0.0469971,
1.88,0.00320435,
1.8805,0.0526428,
1.881,0.039978,
1.8815,-0.0297546,
1.882,-0.105438,
1.8825,-0.113373,
1.883,-0.0328064,
1.8835,0.0778198,
1.884,0.1651,
1.8845,0.220795,
1.885,0.231323,
1.8855,0.206604,
1.886,0.179749,
1.8865,0.155792,
1.887,0.108948,
1.8875,0.00549316,
1.888,-0.105591,
1.8885,-0.131531,
1.889,-0.0868225,
1.8895,-0.0428772,
1.89,-0.032196,
1.8905,-0.030365,
1.891,-0.0157166,
1.8915,0.00137329,
1.892,0.0265503,
1.8925,0.0611877,
1.893,0.0834656,
1.8935,0.088501,
1.894,0.0309753,
1.8945,-0.0921631,
1.895,-0.166016,
1.8955,-0.123901,
1.896,-0.0268555,
1.8965,0.0401306,
1.897,0.045166,
1.8975,0.00411987,
1.898,-0.0204468,
1.8985,0.000915527,
1.899,0.040741,
1.8995,0.0656128,
1.9,0.0508118,
1.9005,-0.0361633,
1.901,-0.154724,
1.9015,-0.199127,
1.902,-0.135956,
1.9025,-0.0241089,
1.903,0.0694275,
1.9035,0.108337,
1.904,0.0958252,
1.9045,0.067749,
1.905,0.0617981,
1.9055,0.093689,
1.906,0.131531,
1.9065,0.155334,
1.907,0.188751,
1.9075,0.222931,
1.908,0.177765,
1.9085,0.0720215,
1.909,0.0332642,
1.9095,0.0619507,
1.91,0.0953674,
1.9105,0.0863647,
1.911,0.0366211,
1.9115,-0.00640869,
1.912,-0.00152588,
1.9125,0.0323486,
1.913,0.0576782,
1.9135,0.0827026,
1.914,0.0865173,
1.9145,-0.00167847,
1.915,-0.177307,
1.9155,-0.284424,
1.916,-0.264435,
1.9165,-0.214386,
1.917,-0.171661,
1.9175,-0.100861,
1.918,-0.00442505,
1.9185,0.0704956,
1.919,0.0941467,
1.9195,0.0750732,
1.92,0.0509644,
1.9205,0.0363159,
1.921,0.0308228,
1.9215,0.0335693,
1.922,0.0239563,
1.9225,-0.00778198,
1.923,-0.065918,
1.9235,-0.112305,
1.924,-0.118256,
1.9245,-0.0915527,
1.925,-0.0526428,
1.9255,-0.0134277,
1.926,0.00595093,
1.9265,-0.0131226,
1.927,-0.0224304,
1.9275,-0.0183105,
1.928,0.00656128,
1.9285,0.0454712,
1.929,0.0567627,
1.9295,0.0401306,
1.93,0.0315857,
1.9305,0.0318909,
1.931,0.00457764,
1.9315,-0.0219727,
1.932,-0.0193787,
1.9325,-0.00640869,
1.933,-0.00579834,
1.9335,-0.0205994,
1.934,-0.0587463,
1.9345,-0.119324,
1.935,-0.164337,
1.9355,-0.169525,
1.936,-0.15564,
1.9365,-0.0990295,
1.937,0.00167847,
1.9375,0.0526428,
1.938,0.0274658,
1.9385,0.0175476,
1.939,0.0793457,
1.9395,0.158844,
1.94,0.162811,
1.9405,0.122528,
1.941,0.115814,
1.9415,0.150757,
1.942,0.185852,
1.9425,0.198364,
1.943,0.172424,
1.9435,0.1091,
1.944,0.0547791,
1.9445,0.0390625,
1.945,0.0489807,
1.9455,0.0831604,
1.946,0.154724,
1.9465,0.256042,
1.947,0.35614,
1.9475,0.380707,
1.948,0.216675,
1.9485,-0.16037,
1.949,-0.504456,
1.9495,-0.547333,
1.95,-0.37384,
1.9505,-0.232239,
1.951,-0.214844,
1.9515,-0.251312,
1.952,-0.263824,
1.9525,-0.237885,
1.953,-0.185242,
1.9535,-0.114594,
1.954,-0.0408936,
1.9545,0.0140381,
1.955,0.0358582,
1.9555,0.0502014,
1.956,0.0769043,
1.9565,0.101471,
1.957,0.098877,
1.9575,0.072937,
1.958,0.019989,
1.9585,-0.0358582,
1.959,-0.0413513,
1.9595,-0.0288391,
1.96,-0.0653076,
1.9605,-0.202026,
1.961,-0.362244,
1.9615,-0.359344,
1.962,-0.177917,
1.9625,0.0187683,
1.963,0.141754,
1.9635,0.2211,
1.964,0.223236,
1.9645,0.106964,
1.965,-0.0160217,
1.9655,-0.0222778,
1.966,0.0430298,
1.9665,0.0906372,
1.967,0.0891113,
1.9675,0.0601196,
1.968,0.0262451,
1.9685,0.0233459,
1.969,0.0939941,
1.9695,0.196686,
1.97,0.205994,
1.9705,0.0930786,
1.971,-0.0370789,
1.9715,-0.118103,
1.972,-0.155487,
1.9725,-0.166016,
1.973,-0.164795,
1.9735,-0.142059,
1.974,-0.115204,
1.9745,-0.0942993,
1.975,-0.0494385,
1.9755,0.0480652,
1.976,0.113678,
1.9765,0.0630188,
1.977,-0.00320435,
1.9775,0.00671387,
1.978,0.0486755,
1.9785,0.0767517,
1.979,0.0723267,
1.9795,0.0585938,
1.98,0.0741577,
1.9805,0.109406,
1.981,0.128174,
1.9815,0.119324,
1.982,0.0938416,
1.9825,0.0744629,
1.983,0.0758362,
1.9835,0.0427246,
1.984,-0.0730896,
1.9845,-0.192566,
1.985,-0.185852,
1.9855,-0.114136,
1.986,-0.0697327,
1.9865,-0.00808716,
1.987,0.0946045,
1.9875,0.187378,
1.988,0.228882,
1.9885,0.201874,
1.989,0.121307,
1.9895,0.0343323,
1.99,-0.0410461,
1.9905,-0.0517273,
1.991,0.0161743,
1.9915,0.0680542,
1.992,0.0524902,
1.9925,0.0253296,
1.993,0.043335,
1.9935,0.0737,
1.994,0.019989,
1.9945,-0.14679,
1.995,-0.265198,
1.9955,-0.268402,
1.996,-0.240784,
1.9965,-0.244904,
1.997,-0.287781,
1.9975,-0.310364,
1.998,-0.24765,
1.9985,-0.129089,
1.999,-0.0170898,
1.9995,0.062561,
2,0.0949097,
2.0005,0.0814819,
2.001,0.0346375,
2.0015,-0.0201416,
2.002,-0.0474548,
2.0025,-0.0619507,
2.003,-0.0921631,
2.0035,-0.0994873,
2.004,-0.0691223,
2.0045,-0.0553894,
2.005,-0.0941467,
2.0055,-0.12558,
2.006,-0.0871277,
2.0065,-0.0163269,
2.007,0.0405884,
2.0075,0.0712585,
2.008,0.0640869,
2.0085,0.0296021,
2.009,0.019989,
2.0095,0.0733948,
2.01,0.135803,
2.0105,0.130768,
2.011,0.0813293,
2.0115,0.020752,
2.012,-0.017395,
2.0125,-0.00793457,
2.013,0.0105286,
2.0135,0.0105286,
2.014,-0.00198364,
2.0145,-0.00305176,
2.015,-0.00427246,
2.0155,0.0164795,
2.016,0.0616455,
2.0165,0.0921631,
2.017,0.0999451,
2.0175,0.0941467,
2.018,0.0794983,
2.0185,0.0567627,
2.019,0.0424194,
2.0195,0.0338745,
2.02,0.0137329,
2.0205,-0.00442505,
2.021,0.0128174,
2.0215,0.0497437,
2.022,0.0537109,
2.0225,0.0335693,
2.023,0.0216675,
2.0235,0.0137329,
2.024,0.0088501,
2.0245,0.0151062,
2.025,0.0387573,
2.0255,0.0723267,
2.026,0.0880432,
2.0265,0.0801086,
2.027,0.0715637,
2.0275,0.100555,
2.028,0.132751,
2.0285,0.110168,
2.029,0.0305176,
2.0295,-0.0447083,
2.03,-0.0602722,
2.0305,-0.0189209,
2.031,0.0259399,
2.0315,0.04776,
2.032,0.04776,
2.0325,-0.00213623,
2.033,-0.0846863,
2.0335,-0.107117,
2.034,0.000152588,
2.0345,0.106964,
2.035,0.109253,
2.0355,0.0558472,
2.036,0.0395203,
2.0365,0.0665283,
2.037,0.0878906,
2.0375,0.10498,
2.038,0.100098,
2.0385,0.0727844,
2.039,0.0570679,
2.0395,0.0640869,
2.04,0.0686646,
2.0405,0.0195313,
2.041,-0.146027,
2.0415,-0.344391,
2.042,-0.380859,
2.0425,-0.263977,
2.043,-0.141449,
2.0435,-0.0619507,
2.044,-0.000762939,
2.0445,0.0285339,
2.045,0.0221252,
2.0455,0.00244141,
2.046,-0.0241089,
2.0465,-0.0509644,
2.047,-0.0640869,
2.0475,-0.0590515,
2.048,-0.0364685,
2.0485,-0.0177002,
2.049,-0.055542,
2.0495,-0.132141,
2.05,-0.154114,
2.0505,-0.130768,
2.051,-0.127411,
2.0515,-0.110779,
2.052,-0.0569153,
2.0525,-0.00640869,
2.053,0.0270081,
2.0535,0.0811768,
2.054,0.169983,
2.0545,0.179443,
2.055,0.00564575,
2.0555,-0.215149,
2.056,-0.255585,
2.0565,-0.11795,
2.057,0.014801,
2.0575,0.0480652,
2.058,0.0418091,
2.0585,0.0474548,
2.059,0.0634766,
2.0595,0.0559998,
2.06,0.0245667,
2.0605,-0.00106812,
2.061,0.0141907,
2.0615,0.0598145,
2.062,0.0842285,
2.0625,0.0637817,
2.063,0.0361633,
2.0635,0.0228882,
2.064,0.020752,
2.0645,0.035553,
2.065,0.0544739,
2.0655,0.0537109,
2.066,0.043335,
2.0665,0.0473022,
2.067,0.0430298,
2.0675,0.0050354,
2.068,-0.0570679,
2.0685,-0.102844,
2.069,-0.129852,
2.0695,-0.131683,
2.07,-0.0900269,
2.0705,-0.00595093,
2.071,0.111389,
2.0715,0.220642,
2.072,0.285187,
2.0725,0.298309,
2.073,0.283508,
2.0735,0.247192,
2.074,0.175934,
2.0745,0.0628662,
2.075,-0.0985718,
2.0755,-0.244141,
2.076,-0.292511,
2.0765,-0.246124,
2.077,-0.174408,
2.0775,-0.118103,
2.078,-0.0450134,
2.0785,0.0518799,
2.079,0.145416,
2.0795,0.179749,
2.08,0.109253,
2.0805,-0.00442505,
2.081,-0.0474548,
2.0815,0.0268555,
2.082,0.116425,
2.0825,0.141144,
2.083,0.127106,
2.0835,0.130463,
2.084,0.109253,
2.0845,-0.0271606,
2.085,-0.175781,
2.0855,-0.197449,
2.086,-0.150604,
2.0865,-0.128174,
2.087,-0.130463,
2.0875,-0.104828,
2.088,-0.0741577,
2.0885,-0.0787354,
2.089,-0.104065,
2.0895,-0.109863,
2.09,-0.0558472,
2.0905,0.0186157,
2.091,0.0254822,
2.0915,0.000762939,
2.092,0.0114441,
2.0925,0.0517273,
2.093,0.0376892,
2.0935,-0.0402832,
2.094,-0.0878906,
2.0945,-0.0759888,
2.095,-0.0437927,
2.0955,0.00320435,
2.096,0.0227356,
2.0965,-0.0527954,
2.097,-0.177155,
2.0975,-0.267944,
2.098,-0.27832,
2.0985,-0.219269,
2.099,-0.116119,
2.0995,-0.00915527,
2.1,0.113983,
2.1005,0.211639,
2.101,0.212402,
2.1015,0.118103,
2.102,0.0291443,
2.1025,0.0447083,
2.103,0.113831,
2.1035,0.143738,
2.104,0.151062,
2.1045,0.192871,
2.105,0.231934,
2.1055,0.207825,
2.106,0.104675,
2.1065,-0.0592041,
2.107,-0.233765,
2.1075,-0.32196,
2.108,-0.323334,
2.1085,-0.289307,
2.109,-0.236053,
2.1095,-0.174255,
2.11,-0.127563,
2.1105,-0.110321,
2.111,-0.0959778,
2.1115,-0.0559998,
2.112,-0.00442505,
2.1125,0.0190735,
2.113,0.0254822,
2.1135,0.0746155,
2.114,0.162811,
2.1145,0.210724,
2.115,0.161743,
2.1155,0.0671387,
2.116,-0.00488281,
2.1165,-0.0331116,
2.117,-0.00656128,
2.1175,0.0697327,
2.118,0.162048,
2.1185,0.194092,
2.119,0.110626,
2.1195,0.030365,
2.12,0.0770569,
2.1205,0.132294,
2.121,0.0656128,
2.1215,-0.00305176,
2.122,0.00534058,
2.1225,-0.00640869,
2.123,-0.0471497,
2.1235,-0.0396729,
2.124,-0.00335693,
2.1245,-0.00915527,
2.125,-0.0386047,
2.1255,-0.0540161,
2.126,-0.0537109,
2.1265,-0.0474548,
2.127,-0.0512695,
2.1275,-0.0390625,
2.128,-0.00839233,
2.1285,0.00320435,
2.129,-0.0187683,
2.1295,-0.0500488,
2.13,-0.0674438,
2.1305,-0.0361633,
2.131,0.0158691,
2.1315,0.0062561,
2.132,-0.0460815,
2.1325,-0.0482178,
2.133,0.00946045,
2.1335,0.0506592,
2.134,0.0396729,
2.1345,0.0050354,
2.135,-0.0134277,
2.1355,-0.0233459,
2.136,-0.0244141,
2.1365,-0.00976563,
2.137,-0.00213623,
2.1375,0.0134277,
2.138,0.068512,
2.1385,0.134888,
2.139,0.172729,
2.1395,0.171509,
2.14,0.12619,
2.1405,0.0900269,
2.141,0.0801086,
2.1415,0.0668335,
2.142,0.0579834,
2.1425,0.0334167,
2.143,-0.0488281,
2.1435,-0.160522,
2.144,-0.215759,
2.1445,-0.19455,
2.145,-0.146484,
2.1455,-0.109711,
2.146,-0.0592041,
2.1465,0.00244141,
2.147,0.0192261,
2.1475,0.00320435,
2.148,0.0201416,
2.1485,0.0758362,
2.149,0.105286,
2.1495,0.0590515,
2.15,0.0117493,
2.1505,0.0276184,
2.151,0.052948,
2.1515,0.0517273,
2.152,0.0556946,
2.1525,0.0514221,
2.153,0.0265503,
2.1535,0.0331116,
2.154,0.0872803,
2.1545,0.103302,
2.155,0.0466919,
2.1555,0.0106812,
2.156,0.0114441,
2.1565,0.00442505,
2.157,-0.00869751,
2.1575,-0.00167847,
2.158,0.00946045,
2.1585,-0.00320435,
2.159,-0.0767517,
2.1595,-0.15564,
2.16,-0.18219,
2.1605,-0.151215,
2.161,-0.0790405,
2.1615,0.00869751,
2.162,0.0787354,
2.1625,0.113678,
2.163,0.0978088,
2.1635,0.0663757,
2.164,0.0547791,
2.1645,0.0532532,
2.165,0.0611877,
2.1655,0.068512,
2.166,0.0544739,
2.1665,0.0447083,
2.167,0.0564575,
2.1675,0.0299072,
2.168,-0.0871277,
2.1685,-0.195923,
2.169,-0.176544,
2.1695,-0.0505066,
2.17,0.0669861,
2.1705,0.0796509,
2.171,0.0280762,
2.1715,-0.0184631,
2.172,-0.0395203,
2.1725,-0.0610352,
2.173,-0.065155,
2.1735,-0.0338745,
2.174,0.0222778,
2.1745,0.0836182,
2.175,0.110779,
2.1755,0.0872803,
2.176,0.0645447,
2.1765,0.027771,
2.177,-0.0480652,
2.1775,-0.0798035,
2.178,-0.0695801,
2.1785,-0.132141,
2.179,-0.254974,
2.1795,-0.284576,
2.18,-0.198212,
2.1805,-0.0973511,
2.181,0.00686646,
2.1815,0.107727,
2.182,0.160828,
2.1825,0.120697,
2.183,0.0161743,
2.1835,-0.0520325,
2.184,-0.0485229,
2.1845,-0.0747681,
2.185,-0.137634,
2.1855,-0.102539,
2.186,0.0123596,
2.1865,0.027771,
2.187,-0.00686646,
2.1875,0.0117493,
2.188,0.0614929,
2.1885,0.0965881,
2.189,0.14328,
2.1895,0.186615,
2.19,0.166321,
2.1905,0.0927734,
2.191,0.0442505,
2.1915,-0.0114441,
2.192,-0.127563,
2.1925,-0.207367,
2.193,-0.243988,
2.1935,-0.265198,
2.194,-0.245972,
2.1945,-0.176697,
2.195,-0.0842285,
2.1955,-0.0273132,
2.196,-0.0305176,
2.1965,-0.0593567,
2.197,-0.0950623,
2.1975,-0.115356,
2.198,-0.0801086,
2.1985,0.0102234,
2.199,0.112762,
2.1995,0.202179,
2.2,0.252228,
2.2005,0.247192,
2.201,0.213623,
2.2015,0.165558,
2.202,0.0958252,
2.2025,0.0276184,
2.203,-0.0205994,
2.2035,-0.0674438,
2.204,-0.116882,
2.2045,-0.179443,
2.205,-0.199432,
2.2055,-0.145874,
2.206,-0.0875854,
2.2065,-0.0888062,
2.207,-0.107422,
2.2075,-0.0686646,
2.208,-0.0180054,
2.2085,-0.0582886,
2.209,-0.142975,
2.2095,-0.166931,
2.21,-0.127411,
2.2105,-0.052948,
2.211,0.0273132,
2.2115,0.0732422,
2.212,0.0849915,
2.2125,0.0852966,
2.213,0.11673,
2.2135,0.186615,
2.214,0.22995,
2.2145,0.200806,
2.215,0.166321,
2.2155,0.178375,
2.216,0.146484,
2.2165,0.0111389,
2.217,-0.146179,
2.2175,-0.185242,
2.218,-0.0727844,
2.2185,0.052948,
2.219,0.0990295,
2.2195,0.085144,
2.22,0.0550842,
2.2205,0.0343323,
2.221,0.0286865,
2.2215,0.0117493,
2.222,-0.0205994,
2.2225,-0.018158,
2.223,0.0492859,
2.2235,0.165253,
2.224,0.269012,
2.2245,0.321045,
2.225,0.320129,
2.2255,0.256653,
2.226,0.171356,
2.2265,0.120544,
2.227,0.0379944,
2.2275,-0.0947571,
2.228,-0.166016,
2.2285,-0.182953,
2.229,-0.226593,
2.2295,-0.283356,
2.23,-0.305023,
2.2305,-0.273895,
2.231,-0.178833,
2.2315,-0.0714111,
2.232,-0.0590515,
2.2325,-0.0982666,
2.233,-0.0886536,
2.2335,-0.0390625,
2.234,0.00167847,
2.2345,0.0276184,
2.235,0.043335,
2.2355,0.0271606,
2.236,-0.0643921,
2.2365,-0.160522,
2.237,-0.153198,
2.2375,-0.0552368,
2.238,0.019989,
2.2385,0.0152588,
2.239,0.00656128,
2.2395,0.0531006,
2.24,0.0842285,
2.2405,0.0540161,
2.241,0.0120544,
2.2415,0.00518799,
2.242,0.017395,
2.2425,0.0187683,
2.243,0.00747681,
2.2435,-0.00335693,
2.244,0.00564575,
2.2445,0.0210571,
2.245,0.0285339,
2.2455,0.0128174,
2.246,-0.00961304,
2.2465,-0.0177002,
2.247,-0.0062561,
2.2475,0.0274658,
2.248,0.0759888,
2.2485,0.0904846,
2.249,0.0630188,
2.2495,0.0401306,
2.25,0.0331116,
2.2505,0.0286865,
2.251,0.0296021,
2.2515,0.0456238,
2.252,0.0567627,
2.2525,0.045929,
2.253,0.0131226,
2.2535,-0.00228882,
2.254,0.0271606,
2.2545,0.115662,
2.255,0.223999,
2.2555,0.236053,
2.256,0.110626,
2.2565,-0.0552368,
2.257,-0.19104,
2.2575,-0.224304,
2.258,-0.161133,
2.2585,-0.116119,
2.259,-0.122223,
2.2595,-0.127411,
2.26,-0.105743,
2.2605,-0.0794983,
2.261,-0.0439453,
2.2615,-0.0190735,
2.262,-0.0334167,
2.2625,-0.0500488,
2.263,-0.0424194,
2.2635,-0.0186157,
2.264,0.0231934,
2.2645,0.0502014,
2.265,0.0476074,
2.2655,0.0532532,
2.266,0.0717163,
2.2665,0.0779724,
2.267,0.0491333,
2.2675,0.0309753,
2.268,0.030365,
2.2685,-0.0012207,
2.269,-0.0619507,
2.2695,-0.0900269,
2.27,-0.0572205,
2.2705,0.0354004,
2.271,0.126038,
2.2715,0.155487,
2.272,0.116119,
2.2725,0.0390625,
2.273,-0.0379944,
2.2735,-0.0595093,
2.274,-0.0259399,
2.2745,-0.0238037,
2.275,-0.0627136,
2.2755,-0.110321,
2.276,-0.124969,
2.2765,-0.0752258,
2.277,0.00320435,
2.2775,0.0479126,
2.278,0.0517273,
2.2785,0.0520325,
2.279,0.0640869,
2.2795,0.0621033,
2.28,0.0242615,
2.2805,-0.0201416,
2.281,-0.0325012,
2.2815,-0.0300598,
2.282,-0.00854492,
2.2825,0.0418091,
2.283,0.0779724,
2.2835,0.0790405,
2.284,0.0697327,
2.2845,0.0637817,
2.285,0.0463867,
2.2855,0.0592041,
2.286,0.109406,
2.2865,0.119629,
2.287,0.101929,
2.2875,0.143738,
2.288,0.244446,
2.2885,0.328369,
2.289,0.289154,
2.2895,0.0643921,
2.29,-0.237427,
2.2905,-0.414124,
2.291,-0.406189,
2.2915,-0.305481,
2.292,-0.232086,
2.2925,-0.267334,
2.293,-0.336151,
2.2935,-0.326233,
2.294,-0.235291,
2.2945,-0.125427,
2.295,-0.0442505,
2.2955,-0.00808716,
2.296,0.00762939,
2.2965,0.0216675,
2.297,0.0540161,
2.2975,0.0784302,
2.298,0.0668335,
2.2985,0.0485229,
2.299,0.0395203,
2.2995,0.040741,
2.3,0.0572205,
2.3005,0.0463867,
2.301,0.00244141,
2.3015,-0.0535583,
2.302,-0.138397,
2.3025,-0.179901,
2.303,-0.103912,
2.3035,-0.00808716,
2.304,0.0512695,
2.3045,0.088501,
2.305,0.12619,
2.3055,0.157013,
2.306,0.138855,
2.3065,0.0515747,
2.307,-0.017395,
2.3075,-0.0294495,
2.308,-0.0224304,
2.3085,-0.0256348,
2.309,-0.039978,
2.3095,-0.0518799,
2.31,-0.0654602,
2.3105,-0.0532532,
2.311,0.000610352,
2.3115,0.0390625,
2.312,0.0109863,
2.3125,-0.055542,
2.313,-0.0961304,
2.3135,-0.0747681,
2.314,-0.0228882,
2.3145,0.0222778,
2.315,0.0534058,
2.3155,0.0785828,
2.316,0.113373,
2.3165,0.132751,
2.317,0.126953,
2.3175,0.120544,
2.318,0.116272,
2.3185,0.12207,
2.319,0.15976,
2.3195,0.216675,
2.32,0.25177,
2.3205,0.222321,
2.321,0.129395,
2.3215,-0.0111389,
2.322,-0.137024,
2.3225,-0.207977,
2.323,-0.187836,
2.3235,-0.0871277,
2.324,0.00106812,
2.3245,-0.0418091,
2.325,-0.154572,
2.3255,-0.203247,
2.326,-0.214539,
2.3265,-0.221558,
2.327,-0.189667,
2.3275,-0.123291,
2.328,-0.075531,
2.3285,-0.058136,
2.329,-0.0393677,
2.3295,-0.0141907,
2.33,0.0100708,
2.3305,0.0584412,
2.331,0.113373,
2.3315,0.155487,
2.332,0.152435,
2.3325,0.0854492,
2.333,0.0247192,
2.3335,0.0140381,
2.334,0.0320435,
2.3345,0.0479126,
2.335,0.032196,
2.3355,-0.0184631,
2.336,-0.106201,
2.3365,-0.18219,
2.337,-0.213776,
2.3375,-0.193024,
2.338,-0.144348,
2.3385,-0.0909424,
2.339,-0.0340271,
2.3395,0.0205994,
2.34,0.0469971,
2.3405,0.0502014,
2.341,0.0357056,
2.3415,-0.00854492,
2.342,-0.0457764,
2.3425,-0.0523376,
2.343,-0.0405884,
2.3435,-0.0198364,
2.344,0.0160217,
2.3445,0.0814819,
2.345,0.16861,
2.3455,0.231628,
2.346,0.227356,
2.3465,0.16861,
2.347,0.105591,
2.3475,0.0796509,
2.348,0.0868225,
2.3485,0.10788,
2.349,0.101929,
2.3495,0.0416565,
2.35,-0.0340271,
2.3505,-0.0987244,
2.351,-0.140228,
2.3515,-0.142975,
2.352,-0.116577,
2.3525,-0.0862122,
2.353,-0.0608826,
2.3535,-0.0390625,
2.354,-0.0233459,
2.3545,0.00244141,
2.355,0.055542,
2.3555,0.108337,
2.356,0.136414,
2.3565,0.147247,
2.357,0.158081,
2.3575,0.154877,
2.358,0.144806,
2.3585,0.128326,
2.359,0.0854492,
2.3595,0.0419617,
2.36,0.0680542,
2.3605,0.160828,
2.361,0.185852,
2.3615,0.0442505,
2.362,-0.151367,
2.3625,-0.210571,
2.363,-0.139008,
2.3635,-0.0483704,
2.364,0.0138855,
2.3645,0.0218201,
2.365,-0.0160217,
2.3655,-0.0167847,
2.366,0.0297546,
2.3665,0.0502014,
2.367,-0.0038147,
2.3675,-0.070343,
2.368,-0.0898743,
2.3685,-0.106812,
2.369,-0.146332,
2.3695,-0.155487,
2.37,-0.106354,
2.3705,-0.00869751,
2.371,0.116119,
2.3715,0.185547,
2.372,0.119019,
2.3725,0.0117493,
2.373,-0.0434875,
2.3735,-0.0646973,
2.374,-0.0778198,
2.3745,-0.103912,
2.375,-0.117188,
2.3755,-0.103912,
2.376,-0.0646973,
2.3765,-0.000305176,
2.377,0.00396729,
2.3775,-0.106506,
2.378,-0.22995,
2.3785,-0.242767,
2.379,-0.152588,
2.3795,-0.0596619,
2.38,-0.0413513,
2.3805,-0.0941467,
2.381,-0.133667,
2.3815,-0.107422,
2.382,-0.0387573,
2.3825,0.0482178,
2.383,0.13504,
2.3835,0.181885,
2.384,0.186157,
2.3845,0.180359,
2.385,0.159302,
2.3855,0.0994873,
2.386,0.00946045,
2.3865,-0.0772095,
2.387,-0.135498,
2.3875,-0.13382,
2.388,-0.109253,
2.3885,-0.14328,
2.389,-0.15625,
2.3895,-0.0878906,
2.39,0.025177,
2.3905,0.127869,
2.391,0.163727,
2.3915,0.0971985,
2.392,-0.0289917,
2.3925,-0.0868225,
2.393,-0.0254822,
2.3935,0.0724792,
2.394,0.11322,
2.3945,0.0613403,
2.395,0.00778198,
2.3955,0.0151062,
2.396,0.0514221,
2.3965,0.0637817,
2.397,0.0404358,
2.3975,0.015564,
2.398,0.014801,
2.3985,0.0260925,
2.399,0.0419617,
2.3995,0.0465393,
2.4,0.0114441,
2.4005,-0.0445557,
2.401,-0.0454712,
2.4015,-0.0112915,
2.402,0.00396729,
2.4025,-0.0163269,
2.403,-0.0761414,
2.4035,-0.114441,
2.404,-0.0643921,
2.4045,0.0572205,
2.405,0.13443,
2.4055,0.11261,
2.406,0.0541687,
2.4065,0,
2.407,-0.0250244,
2.4075,-0.0117493,
2.408,0.0314331,
2.4085,0.0654602,
2.409,0.0805664,
2.4095,0.0868225,
2.41,0.102692,
2.4105,0.137634,
2.411,0.159607,
2.4115,0.120544,
2.412,0.0526428,
2.4125,0.0231934,
2.413,0.0604248,
2.4135,0.111084,
2.414,0.098877,
2.4145,0.0288391,
2.415,-0.00656128,
2.4155,0.0328064,
2.416,0.0286865,
2.4165,-0.0849915,
2.417,-0.159912,
2.4175,-0.113525,
2.418,-0.0688171,
2.4185,-0.119629,
2.419,-0.197449,
2.4195,-0.244904,
2.42,-0.338898,
2.4205,-0.419769,
2.421,-0.365143,
2.4215,-0.227966,
2.422,-0.105591,
2.4225,-0.0228882,
2.423,0.0038147,
2.4235,-0.00305176,
2.424,0.0198364,
2.4245,0.0663757,
2.425,0.0422668,
2.4255,-0.0216675,
2.426,-0.0480652,
2.4265,-0.0431824,
2.427,0,
2.4275,0.0842285,
2.428,0.153198,
2.4285,0.175476,
2.429,0.174866,
2.4295,0.168915,
2.43,0.170288,
2.4305,0.1651,
2.431,0.126801,
2.4315,0.0532532,
2.432,-0.0166321,
2.4325,-0.0614929,
2.433,-0.0854492,
2.4335,-0.0772095,
2.434,-0.0401306,
2.4345,-0.0164795,
2.435,-0.0286865,
2.4355,-0.0770569,
2.436,-0.130005,
2.4365,-0.12619,
2.437,-0.0480652,
2.4375,0.050354,
2.438,0.139618,
2.4385,0.192871,
2.439,0.186768,
2.4395,0.16922,
2.44,0.158386,
2.4405,0.124054,
2.441,0.0721741,
2.4415,0.0350952,
2.442,0.0224304,
2.4425,-0.000305176,
2.443,-0.0358582,
2.4435,-0.0653076,
2.444,-0.0808716,
2.4445,-0.0793457,
2.445,-0.0511169,
2.4455,-0.0706482,
2.446,-0.199738,
2.4465,-0.296021,
2.447,-0.203247,
2.4475,-0.0737,
2.448,-0.0292969,
2.4485,0.0485229,
2.449,0.164185,
2.4495,0.19165,
2.45,0.122681,
2.4505,0.0450134,
2.451,0.0111389,
2.4515,0.0186157,
2.452,0.0306702,
2.4525,-0.0178528,
2.453,-0.101929,
2.4535,-0.15152,
2.454,-0.128937,
2.4545,-0.0747681,
2.455,-0.100403,
2.4555,-0.154877,
2.456,-0.14328,
2.4565,-0.0956726,
2.457,-0.0602722,
2.4575,-0.032959,
2.458,-0.0120544,
2.4585,0.00778198,
2.459,0.0370789,
2.4595,0.0862122,
2.46,0.129089,
2.4605,0.159149,
2.461,0.205383,
2.4615,0.272369,
2.462,0.331116,
2.4625,0.301208,
2.463,0.0648499,
2.4635,-0.199585,
2.464,-0.242615,
2.4645,-0.171814,
2.465,-0.141449,
2.4655,-0.0923157,
2.466,0.0238037,
2.4665,0.146484,
2.467,0.196381,
2.4675,0.126038,
2.468,-0.012207,
2.4685,-0.0262451,
2.469,0.114441,
2.4695,0.240479,
2.47,0.295105,
2.4705,0.311432,
2.471,0.205383,
2.4715,-0.0743103,
2.472,-0.318298,
2.4725,-0.325165,
2.473,-0.205994,
2.4735,-0.179138,
2.474,-0.232239,
2.4745,-0.270538,
2.475,-0.240021,
2.4755,-0.186005,
2.476,-0.0933838,
2.4765,0.071106,
2.477,0.191803,
2.4775,0.151978,
2.478,-0.0779724,
2.4785,-0.292664,
2.479,-0.276947,
2.4795,-0.124207,
2.48,-0.0239563,
2.4805,-0.0242615,
2.481,-0.126648,
2.4815,-0.205078,
2.482,-0.16449,
2.4825,-0.0788879,
2.483,-0.0430298,
2.4835,-0.063324,
2.484,-0.0814819,
2.4845,-0.0698853,
2.485,-0.0259399,
2.4855,0.0172424,
2.486,0.00717163,
2.4865,-0.043335,
2.487,-0.0614929,
2.4875,-0.0244141,
2.488,0.00335693,
2.4885,-0.0491333,
2.489,-0.155792,
2.4895,-0.216827,
2.49,-0.166626,
2.4905,-0.0601196,
2.491,0.0114441,
2.4915,0.0318909,
2.492,0.0367737,
2.4925,0.0474548,
2.493,0.0610352,
2.4935,0.0790405,
2.494,0.110321,
2.4945,0.125732,
2.495,0.115509,
2.4955,0.114288,
2.496,0.136871,
2.4965,0.152588,
2.497,0.149231,
2.4975,0.150604,
2.498,0.106506,
2.4985,0.0402832,
2.499,0.0288391,
2.4995,0.0697327,
2.5,0.0994873,
2.5005,0.0900269,
2.501,0.0691223,
2.5015,0.0553894,
2.502,0.0544739,
2.5025,0.0961304,
2.503,0.214539,
2.5035,0.356445,
2.504,0.466766,
2.5045,0.50354,
2.505,0.357819,
2.5055,0.0236511,
2.506,-0.188599,
2.5065,-0.0541687,
2.507,0.197754,
2.5075,0.313263,
2.508,0.332336,
2.5085,0.240021,
2.509,-0.0958252,
2.5095,-0.503235,
2.51,-0.606995,
2.5105,-0.362854,
2.511,-0.146942,
2.5115,-0.174866,
2.512,-0.326385,
2.5125,-0.468445,
2.513,-0.476074,
2.5135,-0.330048,
2.514,-0.196838,
2.5145,-0.205536,
2.515,-0.296783,
2.5155,-0.338287,
2.516,-0.25589,
2.5165,-0.0852966,
2.517,0.0880432,
2.5175,0.197601,
2.518,0.240936,
2.5185,0.225983,
2.519,0.136261,
2.5195,-0.00778198,
2.52,-0.147247,
2.5205,-0.169678,
2.521,-0.0396729,
2.5215,0.0802612,
2.522,0.0656128,
2.5225,0.042572,
2.523,0.179138,
2.5235,0.342255,
2.524,0.361023,
2.5245,0.321198,
2.525,0.360718,
2.5255,0.492859,
2.526,0.589752,
2.5265,0.507355,
2.527,0.349731,
2.5275,0.270538,
2.528,0.202332,
2.5285,0.144958,
2.529,0.018158,
2.5295,-0.274658,
2.53,-0.515289,
2.5305,-0.514984,
2.531,-0.498199,
2.5315,-0.625458,
2.532,-0.688782,
2.5325,-0.541992,
2.533,-0.239563,
2.5335,0.00442505,
2.534,0.00106812,
2.5345,-0.122375,
2.535,-0.157776,
2.5355,-0.10849,
2.536,-0.0389099,
2.5365,0.0231934,
2.537,0.0576782,
2.5375,0.0556946,
2.538,0.0682068,
2.5385,0.146637,
2.539,0.237732,
2.5395,0.239868,
2.54,0.219879,
2.5405,0.239563,
2.541,0.161591,
2.5415,-0.0259399,
2.542,-0.0973511,
2.5425,0.0762939,
2.543,0.429993,
2.5435,0.705414,
2.544,0.788574,
2.5445,0.816498,
2.545,0.847626,
2.5455,0.782471,
2.546,0.635681,
2.5465,0.530853,
2.547,0.488892,
2.5475,0.489655,
2.548,0.466919,
2.5485,0.266571,
2.549,-0.221405,
2.5495,-0.973663,
2.55,-1.57227,
2.5505,-1.59042,
2.551,-1.08109,
2.5515,-0.519562,
2.552,-0.207214,
2.5525,-0.0526428,
2.553,0.0610352,
2.5535,0.0863647,
2.554,0.11795,
2.5545,0.298767,
2.555,0.546265,
2.5555,0.609741,
2.556,0.359802,
2.5565,-0.0831604,
2.557,-0.588226,
2.5575,-0.921021,
2.558,-0.902557,
2.5585,-0.813293,
2.559,-0.904999,
2.5595,-1.02417,
2.56,-0.88562,
2.5605,-0.552216,
2.561,-0.267792,
2.5615,-0.110474,
2.562,-0.0331116,
2.5625,-0.00946045,
2.563,-0.0553894,
2.5635,-0.198059,
2.564,-0.389862,
2.5645,-0.48172,
2.565,-0.389099,
2.5655,-0.186615,
2.566,-0.0476074,
2.5665,-0.00656128,
2.567,0.0553894,
2.5675,0.180359,
2.568,0.285797,
2.5685,0.323029,
2.569,0.259247,
2.5695,0.109253,
2.57,0.00152588,
2.5705,0.0274658,
2.571,0.121002,
2.5715,0.194702,
2.572,0.267181,
2.5725,0.370941,
2.573,0.467224,
2.5735,0.534668,
2.574,0.569763,
2.5745,0.572205,
2.575,0.565796,
2.5755,0.539856,
2.576,0.477142,
2.5765,0.321198,
2.577,0.045929,
2.5775,-0.257568,
2.578,-0.432587,
2.5785,-0.424042,
2.579,-0.292969,
2.5795,-0.0965881,
2.58,0.0671387,
2.5805,0.150452,
2.581,0.183716,
2.5815,0.203094,
2.582,0.246582,
2.5825,0.308075,
2.583,0.330505,
2.5835,0.296783,
2.584,0.252838,
2.5845,0.22583,
2.585,0.19577,
2.5855,0.149231,
2.586,0.101624,
2.5865,0.0497437,
2.587,-0.0273132,
2.5875,-0.123596,
2.588,-0.233612,
2.5885,-0.281677,
2.589,-0.204468,
2.5895,-0.0772095,
2.59,-0.0949097,
2.5905,-0.202789,
2.591,-0.216064,
2.5915,-0.131531,
2.592,-0.0227356,
2.5925,0.0566101,
2.593,0.112305,
2.5935,0.16571,
2.594,0.162354,
2.5945,0.0946045,
2.595,0.0250244,
2.5955,-0.0476074,
2.596,-0.13031,
2.5965,-0.211792,
2.597,-0.30014,
2.5975,-0.347137,
2.598,-0.234833,
2.5985,0.0265503,
2.599,0.218811,
2.5995,0.230865,
2.6,0.22049,
2.6005,0.246124,
2.601,0.231476,
2.6015,0.113678,
2.602,-0.0402832,
2.6025,-0.117493,
2.603,-0.12207,
2.6035,-0.129852,
2.604,-0.171509,
2.6045,-0.180054,
2.605,-0.0860596,
2.6055,0.0602722,
2.606,0.161743,
2.6065,0.139618,
2.607,0.0228882,
2.6075,-0.0431824,
2.608,0.0283813,
2.6085,0.154724,
2.609,0.235901,
2.6095,0.223694,
2.61,0.131989,
2.6105,0.0550842,
2.611,0.130157,
2.6115,0.288086,
2.612,0.388489,
2.6125,0.413513,
2.613,0.362396,
2.6135,0.148926,
2.614,-0.17868,
2.6145,-0.40741,
2.615,-0.361786,
2.6155,-0.200653,
2.616,-0.167389,
2.6165,-0.190887,
2.617,-0.154572,
2.6175,-0.0787354,
2.618,-0.0526428,
2.6185,-0.164032,
2.619,-0.273285,
2.6195,-0.238953,
2.62,-0.139008,
2.6205,-0.1091,
2.621,-0.15213,
2.6215,-0.202026,
2.622,-0.19577,
2.6225,-0.0967407,
2.623,0.0428772,
2.6235,0.102234,
2.624,0.0505066,
2.6245,-0.0109863,
2.625,-0.00717163,
2.6255,0.0752258,
2.626,0.170441,
2.6265,0.172577,
2.627,0.0952148,
2.6275,0.0172424,
2.628,0.010376,
2.6285,-0.0247192,
2.629,-0.205841,
2.6295,-0.413818,
2.63,-0.361481,
2.6305,-0.0286865,
2.631,0.201263,
2.6315,0.13443,
2.632,0.0167847,
2.6325,-0.0177002,
2.633,-0.0485229,
2.6335,-0.0993347,
2.634,-0.120697,
2.6345,-0.0997925,
2.635,-0.0714111,
2.6355,-0.0375366,
2.636,0.0146484,
2.6365,0.0526428,
2.637,0.0769043,
2.6375,0.120239,
2.638,0.140533,
2.6385,0.119324,
2.639,0.0775146,
2.6395,0.0350952,
2.64,0.00259399,
2.6405,-0.0193787,
2.641,-0.0157166,
2.6415,-0.0128174,
2.642,-0.0466919,
2.6425,-0.0956726,
2.643,-0.108948,
2.6435,-0.0672913,
2.644,0.0212097,
2.6445,0.0912476,
2.645,0.093689,
2.6455,0.0640869,
2.646,0.0561523,
2.6465,0.0532532,
2.647,0.0549316,
2.6475,0.0874329,
2.648,0.143127,
2.6485,0.203247,
2.649,0.265961,
2.6495,0.358887,
2.65,0.442505,
2.6505,0.415344,
2.651,0.252991,
2.6515,0.0794983,
2.652,0.0245667,
2.6525,0.0747681,
2.653,0.0997925,
2.6535,0.00289917,
2.654,-0.166779,
2.6545,-0.196381,
2.655,-0.0724792,
2.6555,0.00274658,
2.656,0.0537109,
2.6565,0.19989,
2.657,0.382843,
2.6575,0.371552,
2.658,0.114594,
2.6585,-0.137787,
2.659,-0.209045,
2.6595,-0.164032,
2.66,-0.124817,
2.6605,-0.104828,
2.661,-0.0968933,
2.6615,-0.0912476,
2.662,-0.136719,
2.6625,-0.26062,
2.663,-0.353088,
2.6635,-0.289307,
2.664,-0.0773621,
2.6645,0.166168,
2.665,0.287628,
2.6655,0.112152,
2.666,-0.289764,
2.6665,-0.55069,
2.667,-0.587463,
2.6675,-0.593719,
2.668,-0.551453,
2.6685,-0.402069,
2.669,-0.242462,
2.6695,-0.140076,
2.67,-0.093689,
2.6705,-0.0361633,
2.671,0.0650024,
2.6715,0.177155,
2.672,0.200806,
2.6725,0.0665283,
2.673,-0.107117,
2.6735,-0.127258,
2.674,-0.0242615,
2.6745,-0.0398254,
2.675,-0.198822,
2.6755,-0.27832,
2.676,-0.155182,
2.6765,0.0820923,
2.677,0.289764,
2.6775,0.394135,
2.678,0.376282,
2.6785,0.385742,
2.679,0.482635,
2.6795,0.534973,
2.68,0.509949,
2.6805,0.554352,
2.681,0.608826,
2.6815,0.535278,
2.682,0.232697,
2.6825,-0.218964,
2.683,-0.540619,
2.6835,-0.66925,
2.684,-0.667114,
2.6845,-0.604706,
2.685,-0.59906,
2.6855,-0.575562,
2.686,-0.422974,
2.6865,-0.27832,
2.687,-0.370483,
2.6875,-0.608673,
2.688,-0.696869,
2.6885,-0.538788,
2.689,-0.293884,
2.6895,-0.152893,
2.69,-0.115967,
2.6905,-0.0817871,
2.691,-0.00610352,
2.6915,0.111389,
2.692,0.265656,
2.6925,0.382233,
2.693,0.392303,
2.6935,0.300598,
2.694,0.130463,
2.6945,-0.0569153,
2.695,-0.0695801,
2.6955,0.0868225,
2.696,0.289459,
2.6965,0.560303,
2.697,0.842133,
2.6975,0.98053,
2.698,0.975647,
2.6985,0.891724,
2.699,0.773773,
2.6995,0.688782,
2.7,0.661316,
2.7005,0.625458,
2.701,0.508881,
2.7015,0.372162,
2.702,0.191193,
2.7025,-0.287933,
2.703,-0.94986,
2.7035,-1.07895,
2.704,-0.506592,
2.7045,0.169067,
2.705,0.550232,
2.7055,0.626526,
2.706,0.50293,
2.7065,0.288544,
2.707,-0.139923,
2.7075,-0.757294,
2.708,-1.3382,
2.7085,-1.76224,
2.709,-1.87119,
2.7095,-1.58691,
2.71,-1.05652,
2.7105,-0.589752,
2.711,-0.387573,
2.7115,-0.345306,
2.712,-0.237427,
2.7125,-0.0299072,
2.713,0.131989,
2.7135,0.190582,
2.714,0.192566,
2.7145,0.151978,
2.715,0.035553,
2.7155,-0.0814819,
2.716,-0.114288,
2.7165,-0.0856018,
2.717,0.00152588,
2.7175,0.122681,
2.718,0.258179,
2.7185,0.444946,
2.719,0.662842,
2.7195,0.720825,
2.72,0.644073,
2.7205,0.617981,
2.721,0.769043,
2.7215,1.02356,
2.722,1.0611,
2.7225,0.72052,
2.723,0.109253,
2.7235,-0.528717,
2.724,-0.97168,
2.7245,-1.09329,
2.725,-0.800323,
2.7255,-0.309448,
2.726,-0.0183105,
2.7265,-0.0341797,
2.727,-0.16037,
2.7275,-0.120697,
2.728,0.124512,
2.7285,0.494995,
2.729,0.914764,
2.7295,1.22192,
2.73,1.16409,
2.7305,0.817413,
2.731,0.492859,
2.7315,0.323334,
2.732,0.149536,
2.7325,0.025177,
2.733,-0.0630188,
2.7335,-0.35553,
2.734,-0.963593,
2.7345,-1.72058,
2.735,-2.26929,
2.7355,-2.21024,
2.736,-1.6301,
2.7365,-0.878296,
2.737,-0.142212,
2.7375,0.449677,
2.738,0.767822,
2.7385,0.948334,
2.739,1.19751,
2.7395,1.46713,
2.74,1.57043,
2.7405,1.51382,
2.741,1.33423,
2.7415,0.847778,
2.742,0.192261,
2.7425,-0.115356,
2.743,-0.13092,
2.7435,-0.270996,
2.744,-0.701752,
2.7445,-1.23291,
2.745,-1.52039,
2.7455,-1.55899,
2.746,-1.41739,
2.7465,-1.07849,
2.747,-0.680847,
2.7475,-0.441132,
2.748,-0.251312,
2.7485,-0.12085,
2.749,-0.106812,
2.7495,-0.0396729,
2.75,0.101166,
2.7505,0.176544,
2.751,0.240631,
2.7515,0.443115,
2.752,0.684662,
2.7525,0.734406,
2.753,0.671387,
2.7535,0.620575,
2.754,0.500488,
2.7545,0.295563,
2.755,0.26474,
2.7555,0.516968,
2.756,0.808105,
2.7565,0.975189,
2.757,1.02371,
2.7575,0.921631,
2.758,0.824432,
2.7585,0.965881,
2.759,1.09146,
2.7595,0.901947,
2.76,0.379333,
2.7605,-0.491791,
2.761,-1.53809,
2.7615,-2.21207,
2.762,-2.08359,
2.7625,-1.45706,
2.763,-0.914154,
2.7635,-0.546875,
2.764,-0.393982,
2.7645,-0.547791,
2.765,-0.638123,
2.7655,-0.339966,
2.766,0.157776,
2.7665,0.441132,
2.767,0.454712,
2.7675,0.395813,
2.768,0.427399,
2.7685,0.548401,
2.769,0.606079,
2.7695,0.542145,
2.77,0.449371,
2.7705,0.412598,
2.771,0.41626,
2.7715,0.542297,
2.772,0.713196,
2.7725,0.697632,
2.773,0.587616,
2.7735,0.610962,
2.774,0.688477,
2.7745,0.736389,
2.775,0.758667,
2.7755,0.51712,
2.776,-0.159149,
2.7765,-0.999603,
2.777,-1.46927,
2.7775,-1.41571,
2.778,-1.11313,
2.7785,-0.801697,
2.779,-0.549011,
2.7795,-0.374756,
2.78,-0.267639,
2.7805,-0.211792,
2.781,-0.272064,
2.7815,-0.37674,
2.782,-0.310211,
2.7825,-0.0987244,
2.783,0.0526428,
2.7835,0.0152588,
2.784,-0.11261,
2.7845,-0.0561523,
2.785,0.260468,
2.7855,0.562744,
2.786,0.641022,
2.7865,0.597382,
2.787,0.554962,
2.7875,0.428772,
2.788,-0.0546265,
2.7885,-0.588684,
2.789,-0.602112,
2.7895,-0.229645,
2.79,0.00854492,
2.7905,0.0613403,
2.791,-0.00778198,
2.7915,-0.243683,
2.792,-0.560303,
2.7925,-0.86853,
2.793,-1.06659,
2.7935,-0.887604,
2.794,-0.395355,
2.7945,0.0999451,
2.795,0.487061,
2.7955,0.620575,
2.796,0.439606,
2.7965,0.039978,
2.797,-0.30777,
2.7975,-0.30777,
2.798,0.0234985,
2.7985,0.347748,
2.799,0.482941,
2.7995,0.409698,
2.8,0.246582,
2.8005,0.123138,
2.801,0.0482178,
2.8015,0.101624,
2.802,0.336456,
2.8025,0.519257,
2.803,0.54306,
2.8035,0.608215,
2.804,0.72525,
2.8045,0.888977,
2.805,0.944519,
2.8055,0.730896,
2.806,0.267334,
2.8065,-0.242462,
2.807,-0.616608,
2.8075,-0.675201,
2.808,-0.534515,
2.8085,-0.825195,
2.809,-1.14182,
2.8095,-0.717316,
2.81,0.0889587,
2.8105,0.322876,
2.811,0.0814819,
2.8115,-0.104065,
2.812,-0.184174,
2.8125,-0.265198,
2.813,-0.157013,
2.8135,0.0648499,
2.814,-0.0387573,
2.8145,-0.35965,
2.815,-0.36377,
2.8155,-0.10437,
2.816,0.123138,
2.8165,0.33783,
2.817,0.515747,
2.8175,0.435333,
2.818,0.0653076,
2.8185,-0.323792,
2.819,-0.509491,
2.8195,-0.332489,
2.82,0.0195313,
2.8205,0.0694275,
2.821,-0.0115967,
2.8215,0.119781,
2.822,0.257263,
2.8225,0.0973511,
2.823,-0.366211,
2.8235,-0.771637,
2.824,-0.809326,
2.8245,-0.499573,
2.825,-0.0665283,
2.8255,0.157776,
2.826,0.156403,
2.8265,0.287781,
2.827,0.53772,
2.8275,0.760193,
2.828,1.0022,
2.8285,1.31973,
2.829,1.48804,
2.8295,0.957336,
2.83,-0.406647,
2.8305,-1.53793,
2.831,-1.58966,
2.8315,-0.980682,
2.832,-0.478058,
2.8325,-0.289001,
2.833,-0.235596,
2.8335,-0.191803,
2.834,-0.0379944,
2.8345,-0.00976563,
2.835,-0.310059,
2.8355,-0.386047,
2.836,0.109863,
2.8365,0.584564,
2.837,0.520477,
2.8375,0.155945,
2.838,-0.0387573,
2.8385,-0.144653,
2.839,-0.207672,
2.8395,-0.0358582,
2.84,0.297852,
2.8405,0.641785,
2.841,0.815125,
2.8415,0.813446,
2.842,0.667877,
2.8425,0.200653,
2.843,-0.587158,
2.8435,-1.11938,
2.844,-0.819855,
2.8445,-0.0213623,
2.845,0.428009,
2.8455,0.334015,
2.846,0.147095,
2.8465,0.0808716,
2.847,0.0517273,
2.8475,-0.129395,
2.848,-0.451965,
2.8485,-0.848083,
2.849,-1.02188,
2.8495,-0.887756,
2.85,-0.660858,
2.8505,-0.436859,
2.851,-0.237885,
2.8515,-0.0550842,
2.852,0.0778198,
2.8525,0.189209,
2.853,0.34317,
2.8535,0.512695,
2.854,0.585938,
2.8545,0.464325,
2.855,0.325623,
2.8555,0.362091,
2.856,0.509491,
2.8565,0.483551,
2.857,0.128937,
2.8575,-0.21637,
2.858,-0.359344,
2.8585,-0.381622,
2.859,-0.321503,
2.8595,-0.225372,
2.86,0.00488281,
2.8605,0.482788,
2.861,0.92392,
2.8615,1.05453,
2.862,1.16837,
2.8625,1.21445,
2.863,0.626526,
2.8635,-0.587616,
2.864,-1.40213,
2.8645,-1.35315,
2.865,-0.957642,
2.8655,-0.748749,
2.866,-0.62088,
2.8665,-0.25589,
2.867,0.246887,
2.8675,0.466003,
2.868,0.426483,
2.8685,0.404663,
2.869,0.445099,
2.8695,0.394592,
2.87,0.169678,
2.8705,0.0138855,
2.871,0.1091,
2.8715,0.368958,
2.872,0.644226,
2.8725,0.648346,
2.873,0.327759,
2.8735,0.0221252,
2.874,0.0463867,
2.8745,0.187073,
2.875,-0.055542,
2.8755,-0.581512,
2.876,-0.97229,
2.8765,-1.24847,
2.877,-1.0022,
2.8775,-0.332489,
2.878,0.102386,
2.8785,0.121918,
2.879,0.0343323,
2.8795,0.0222778,
2.88,0.0151062,
2.8805,-0.0424194,
2.881,-0.121307,
2.8815,-0.134125,
2.882,-0.0654602,
2.8825,-0.0300598,
2.883,-0.0604248,
2.8835,-0.0852966,
2.884,-0.01297,
2.8845,0.115051,
2.885,0.106049,
2.8855,-0.0169373,
2.886,-0.102997,
2.8865,-0.138702,
2.887,-0.155029,
2.8875,-0.0863647,
2.888,0.118866,
2.8885,0.476532,
2.889,0.960846,
2.8895,1.35651,
2.89,1.42822,
2.8905,1.15234,
2.891,0.799408,
2.8915,0.445251,
2.892,-0.0445557,
2.8925,-0.646515,
2.893,-1.07773,
2.8935,-0.935974,
2.894,-0.506439,
2.8945,-0.330963,
2.895,-0.378876,
2.8955,-0.475159,
2.896,-0.595093,
2.8965,-0.656128,
2.897,-0.547791,
2.8975,-0.269928,
2.898,0.108032,
2.8985,0.336609,
2.899,0.195313,
2.8995,-0.0215149,
2.9,-0.0610352,
2.9005,0.0952148,
2.901,0.403137,
2.9015,0.595856,
2.902,0.604706,
2.9025,0.441437,
2.903,0.0817871,
2.9035,-0.315247,
2.904,-0.72998,
2.9045,-1.04965,
2.905,-0.878296,
2.9055,-0.576782,
2.906,-0.612335,
2.9065,-0.64682,
2.907,-0.363617,
2.9075,0.0323486,
2.908,0.275116,
2.9085,0.48996,
2.909,0.677185,
2.9095,0.662231,
2.91,0.508118,
2.9105,0.389252,
2.911,0.379181,
2.9115,0.520935,
2.912,0.884857,
2.9125,1.34842,
2.913,1.49704,
2.9135,1.29654,
2.914,0.900421,
2.9145,0.493622,
2.915,0.0616455,
2.9155,-0.87265,
2.916,-2.02942,
2.9165,-2.46765,
2.917,-2.01752,
2.9175,-1.1673,
2.918,-0.511627,
2.9185,-0.211792,
2.919,-0.0331116,
2.9195,0.218048,
2.92,0.418701,
2.9205,0.455627,
2.921,0.293274,
2.9215,0.017395,
2.922,-0.171051,
2.9225,-0.25528,
2.923,-0.302277,
2.9235,-0.284576,
2.924,-0.139618,
2.9245,-0.0273132,
2.925,-0.0874329,
2.9255,-0.139923,
2.926,0.0697327,
2.9265,0.310822,
2.927,0.274506,
2.9275,0.0379944,
2.928,-0.050354,
2.9285,0.0733948,
2.929,0.230713,
2.9295,0.357971,
2.93,0.477905,
2.9305,0.646667,
2.931,0.776978,
2.9315,0.666656,
2.932,0.244751,
2.9325,-0.417938,
2.933,-0.895538,
2.9335,-0.860443,
2.934,-0.515289,
2.9345,-0.270081,
2.935,-0.19516,
2.9355,-0.150146,
2.936,-0.135193,
2.9365,-0.129547,
2.937,0.146942,
2.9375,0.649414,
2.938,0.850067,
2.9385,0.673676,
2.939,0.426178,
2.9395,0.163422,
2.94,-0.270233,
2.9405,-0.623322,
2.941,-0.309906,
2.9415,0.384216,
2.942,0.560303,
2.9425,0.254974,
2.943,-0.265808,
2.9435,-0.700989,
2.944,-0.594482,
2.9445,-0.203247,
2.945,-0.0692749,
2.9455,-0.227051,
2.946,-0.30014,
2.9465,-0.0259399,
2.947,0.560913,
2.9475,1.00769,
2.948,1.12625,
2.9485,0.864868,
2.949,0.435638,
2.9495,0.19165,
2.95,0.17395,
2.9505,0.180206,
2.951,-0.0854492,
2.9515,-0.667877,
2.952,-1.13922,
2.9525,-1.19492,
2.953,-1.02478,
2.9535,-0.729065,
2.954,-0.244598,
2.9545,0.149078,
2.955,0.218811,
2.9555,0.191193,
2.956,0.225067,
2.9565,0.178833,
2.957,0.116272,
2.9575,0.0170898,
2.958,-0.157776,
2.9585,-0.292511,
2.959,-0.311584,
2.9595,-0.350647,
2.96,-0.341492,
2.9605,0.0105286,
2.961,0.464478,
2.9615,0.579376,
2.962,0.440216,
2.9625,0.333099,
2.963,0.280609,
2.9635,0.183258,
2.964,0.228577,
2.9645,0.489197,
2.965,0.858612,
2.9655,1.18332,
2.966,1.32507,
2.9665,1.11725,
2.967,0.272369,
2.9675,-0.521545,
2.968,-0.655518,
2.9685,-0.720673,
2.969,-0.939941,
2.9695,-1.06079,
2.97,-0.940857,
2.9705,-0.546875,
2.971,-0.0984192,
2.9715,0.106506,
2.972,0.045166,
2.9725,-0.0178528,
2.973,0.0492859,
2.9735,-0.00915527,
2.974,-0.162811,
2.9745,-0.176086,
2.975,-0.098114,
2.9755,-0.12146,
2.976,-0.334778,
2.9765,-0.598145,
2.977,-0.558472,
2.9775,-0.185547,
2.978,0.195313,
2.9785,0.352936,
2.979,0.311127,
2.9795,0.118103,
2.98,-0.205688,
2.9805,-0.434418,
2.981,-0.393829,
2.9815,-0.142822,
2.982,0.00320435,
2.9825,-0.0248718,
2.983,-0.0645447,
2.9835,-0.037384,
2.984,0.100098,
2.9845,0.213013,
2.985,0.202332,
2.9855,0.0997925,
2.986,-0.181122,
2.9865,-0.340118,
2.987,-0.12085,
2.9875,0.112152,
2.988,0.21286,
2.9885,0.332184,
2.989,0.340729,
2.9895,0.102997,
2.99,-0.190582,
2.9905,-0.158691,
2.991,0.211639,
2.9915,0.400238,
2.992,0.0865173,
2.9925,-0.209656,
2.993,-0.0434875,
2.9935,0.24704,
2.994,0.200043,
2.9945,-0.135498,
2.995,-0.333099,
2.9955,-0.279999,
2.996,-0.132751,
2.9965,-0.113983,
2.997,-0.206604,
2.9975,-0.184784,
2.998,-0.0137329,
2.9985,0.177765,
2.999,0.360718,
2.9995,0.453033,
3,0.462646,
3.0005,0.515442,
3.001,0.642548,
3.0015,0.72937,
3.002,0.616302,
3.0025,0.383453,
3.003,0.241699,
3.0035,-0.00488281,
3.004,-0.572662,
3.0045,-1.06491,
3.005,-1.07498,
3.0055,-0.794373,
3.006,-0.397339,
3.0065,-0.172729,
3.007,-0.263214,
3.0075,-0.444183,
3.008,-0.505066,
3.0085,-0.365295,
3.009,0.0671387,
3.0095,0.524292,
3.01,0.677185,
3.0105,0.63858,
3.011,0.523987,
3.0115,0.315247,
3.012,0.0575256,
3.0125,-0.039978,
3.013,0.0953674,
3.0135,0.170898,
3.014,0.0561523,
3.0145,-0.113373,
3.015,-0.121155,
3.0155,0.0175476,
3.016,0.078125,
3.0165,0.0164795,
3.017,-0.0892639,
3.0175,-0.216827,
3.018,-0.172577,
3.0185,0.00228882,
3.019,-0.0511169,
3.0195,-0.275574,
3.02,-0.249176,
3.0205,-0.0280762,
3.021,0.230255,
3.0215,0.341187,
3.022,0.371704,
3.0225,0.398865,
3.023,0.211029,
3.0235,-0.0827026,
3.024,-0.138702,
3.0245,-0.072937,
3.025,-0.0874329,
3.0255,-0.0601196,
3.026,0.151825,
3.0265,0.410309,
3.027,0.441742,
3.0275,0.258789,
3.028,0.191803,
3.0285,0.318909,
3.029,0.330505,
3.0295,0.183258,
3.03,0.159912,
3.0305,0.304718,
3.031,0.209045,
3.0315,-0.0967407,
3.032,-0.0997925,
3.0325,-0.114441,
3.033,-0.658112,
3.0335,-1.20438,
3.034,-1.04797,
3.0345,-0.453033,
3.035,0.0238037,
3.0355,0.288086,
3.036,0.379486,
3.0365,0.316772,
3.037,0.0758362,
3.0375,-0.271301,
3.038,-0.532837,
3.0385,-0.548401,
3.039,-0.319214,
3.0395,-0.00869751,
3.04,0.284882,
3.0405,0.565948,
3.041,0.608063,
3.0415,0.445404,
3.042,0.259857,
3.0425,0.0411987,
3.043,-0.0512695,
3.0435,-0.0953674,
3.044,-0.233459,
3.0445,-0.24765,
3.045,-0.138855,
3.0455,-0.118561,
3.046,-0.219421,
3.0465,-0.22583,
3.047,-0.107422,
3.0475,-0.136108,
3.048,-0.294647,
3.0485,-0.263214,
3.049,0.039978,
3.0495,0.477753,
3.05,0.651703,
3.0505,0.469818,
3.051,0.163269,
3.0515,-0.0572205,
3.052,-0.248108,
3.0525,-0.551453,
3.053,-0.78537,
3.0535,-0.751953,
3.054,-0.497437,
3.0545,-0.232544,
3.055,-0.248108,
3.0555,-0.271301,
3.056,-0.10025,
3.0565,0.0558472,
3.057,0.140533,
3.0575,0.180206,
3.058,0.162659,
3.0585,0.127869,
3.059,0.101776,
3.0595,0.0515747,
3.06,-0.0167847,
3.0605,-0.0604248,
3.061,-0.0796509,
3.0615,-0.113831,
3.062,-0.137177,
3.0625,-0.0772095,
3.063,0.00808716,
3.0635,0.0521851,
3.064,0.065155,
3.0645,0.159302,
3.065,0.29953,
3.0655,0.39856,
3.066,0.395966,
3.0665,0.275116,
3.067,0.134583,
3.0675,0.10849,
3.068,0.256805,
3.0685,0.366974,
3.069,0.359497,
3.0695,0.366669,
3.07,0.380554,
3.0705,0.360565,
3.071,0.325012,
3.0715,0.220795,
3.072,0.104675,
3.0725,0.0180054,
3.073,-0.0679016,
3.0735,-0.237427,
3.074,-0.524445,
3.0745,-0.658417,
3.075,-0.30777,
3.0755,0.327301,
3.076,0.709381,
3.0765,0.632477,
3.077,0.40802,
3.0775,0.172577,
3.078,-0.118256,
3.0785,-0.200958,
3.079,0.110779,
3.0795,0.323792,
3.08,-0.114441,
3.0805,-1.02509,
3.081,-1.54282,
3.0815,-1.10733,
3.082,-0.382233,
3.0825,0.0312805,
3.083,0.130157,
3.0835,0.109406,
3.084,0.0498962,
3.0845,-0.0152588,
3.085,0.0338745,
3.0855,0.10849,
3.086,0.0927734,
3.0865,0.0123596,
3.087,-0.0868225,
3.0875,-0.0993347,
3.088,-0.0317383,
3.0885,0.0221252,
3.089,0.0421143,
3.0895,0.0506592,
3.09,0.0505066,
3.0905,-0.00488281,
3.091,-0.0648499,
3.0915,-0.0611877,
3.092,0.00579834,
3.0925,0.129089,
3.093,0.352173,
3.0935,0.548706,
3.094,0.647583,
3.0945,0.636597,
3.095,0.527344,
3.0955,0.50354,
3.096,0.315094,
3.0965,-0.319366,
3.097,-0.85556,
3.0975,-0.783386,
3.098,-0.211639,
3.0985,0.222321,
3.099,0.230865,
3.0995,0.093689,
3.1,-0.0317383,
3.1005,-0.219421,
3.101,-0.566254,
3.1015,-1.0144,
3.102,-1.19232,
3.1025,-0.895844,
3.103,-0.351563,
3.1035,-0.012207,
3.104,0.0804138,
3.1045,0.16983,
3.105,0.26062,
3.1055,0.264587,
3.106,0.174561,
3.1065,0.059967,
3.107,-0.010376,
3.1075,-0.00915527,
3.108,0.0404358,
3.1085,0.0965881,
3.109,0.166321,
3.1095,0.223236,
3.11,0.237885,
3.1105,0.256805,
3.111,0.283661,
3.1115,0.283966,
3.112,0.279541,
3.1125,0.260773,
3.113,0.207214,
3.1135,0.159607,
3.114,0.144196,
3.1145,0.135956,
3.115,0.141449,
3.1155,0.14679,
3.116,0.15152,
3.1165,0.14328,
3.117,0.116882,
3.1175,0.128479,
3.118,0.140991,
3.1185,0.0250244,
3.119,-0.235748,
3.1195,-0.335083,
3.12,-0.163879,
3.1205,-0.027771,
3.121,-0.104523,
3.1215,-0.195618,
3.122,-0.227966,
3.1225,-0.323486,
3.123,-0.292206,
3.1235,-0.032196,
3.124,0.203552,
3.1245,0.188599,
3.125,0.0233459,
3.1255,-0.221863,
3.126,-0.252228,
3.1265,-0.0370789,
3.127,0.0552368,
3.1275,-0.0579834,
3.128,-0.205078,
3.1285,-0.297394,
3.129,-0.2388,
3.1295,-0.0491333,
3.13,0.115051,
3.1305,0.262451,
3.131,0.2771,
3.1315,0.123749,
3.132,0.119934,
3.1325,0.151825,
3.133,0.0494385,
3.1335,-0.092926,
3.134,-0.105591,
3.1345,-0.110016,
3.135,-0.208435,
3.1355,-0.228729,
3.136,-0.146484,
3.1365,-0.0222778,
3.137,0.0326538,
3.1375,0.0201416,
3.138,0.062561,
3.1385,0.0746155,
3.139,0.000152588,
3.1395,-0.137634,
3.14,-0.338745,
3.1405,-0.59082,
3.141,-0.812836,
3.1415,-0.561523,
3.142,0.392914,
3.1425,1.37299,
3.143,1.81046,
3.1435,1.7218,
3.144,1.43417,
3.1445,1.18683,
3.145,0.591125,
3.1455,-0.781708,
3.146,-1.93573,
3.1465,-1.57944,
3.147,-0.255737,
3.1475,0.573578,
3.148,0.460968,
3.1485,-0.0279236,
3.149,-0.43869,
3.1495,-0.593262,
3.15,-0.612183,
3.1505,-0.678711,
3.151,-0.650024,
3.1515,-0.484924,
3.152,-0.393524,
3.1525,-0.350342,
3.153,-0.167999,
3.1535,0.045929,
3.154,0.0924683,
3.1545,0.0221252,
3.155,0.00579834,
3.1555,0.205536,
3.156,0.376282,
3.1565,0.319977,
3.157,0.241852,
3.1575,0.332947,
3.158,0.438232,
3.1585,0.292206,
3.159,-0.0411987,
3.1595,-0.171509,
3.16,-0.0184631,
3.1605,0.0236511,
3.161,-0.11261,
3.1615,-0.144958,
3.162,-0.0283813,
3.1625,0.0550842,
3.163,0.0187683,
3.1635,-0.0679016,
3.164,-0.0830078,
3.1645,-0.0784302,
3.165,-0.136414,
3.1655,-0.135498,
3.166,0.0256348,
3.1665,0.228119,
3.167,0.354462,
3.1675,0.397949,
3.168,0.340729,
3.1685,0.166321,
3.169,-0.121002,
3.1695,-0.335846,
3.17,-0.297546,
3.1705,-0.0958252,
3.171,0.0904846,
3.1715,0.162201,
3.172,0.119019,
3.1725,-0.0337219,
3.173,-0.202789,
3.1735,-0.249786,
3.174,-0.198517,
3.1745,-0.163422,
3.175,-0.215149,
3.1755,-0.296631,
3.176,-0.192566,
3.1765,-0.00564575,
3.177,0.0878906,
3.1775,0.212097,
3.178,0.270996,
3.1785,0.155487,
3.179,0.0123596,
3.1795,-0.0543213,
3.18,-0.0912476,
3.1805,-0.13382,
3.181,-0.129395,
3.1815,0.0511169,
3.182,0.29541,
3.1825,0.433807,
3.183,0.50354,
3.1835,0.574951,
3.184,0.620117,
3.1845,0.592346,
3.185,0.494995,
3.1855,0.172882,
3.186,-0.409088,
3.1865,-0.852966,
3.187,-0.781097,
3.1875,-0.276489,
3.188,0.250549,
3.1885,0.484619,
3.189,0.339661,
3.1895,0.129395,
3.19,0.0701904,
3.1905,-0.0450134,
3.191,-0.364532,
3.1915,-0.638733,
3.192,-0.641937,
3.1925,-0.403442,
3.193,-0.133057,
3.1935,0.0448608,
3.194,0.0883484,
3.1945,-0.0100708,
3.195,-0.180511,
3.1955,-0.179901,
3.196,0.00915527,
3.1965,0.160522,
3.197,0.177155,
3.1975,0.167236,
3.198,0.16983,
3.1985,0.0901794,
3.199,-0.091095,
3.1995,-0.24231,
3.2,-0.276794,
3.2005,-0.193939,
3.201,-0.120087,
3.2015,-0.0662231,
3.202,0.0178528,
3.2025,0.169067,
