0,-0.000305176,
0.0005,-0.000610352,
0.001,0.00259399,
0.0015,0.00350952,
0.002,0.00289917,
0.0025,0.00350952,
0.003,0.00350952,
0.0035,0.00244141,
0.004,0.00183105,
0.0045,0.00305176,
0.005,0.00411987,
0.0055,0.00579834,
0.006,0.00457764,
0.0065,0.00259399,
0.007,0.00198364,
0.0075,0.00396729,
0.008,0.00656128,
0.0085,0.0050354,
0.009,0.00289917,
0.0095,0.00213623,
0.01,0.00518799,
0.0105,0.00900269,
0.011,0.0088501,
0.0115,0.00488281,
0.012,0.00595093,
0.0125,0.0109863,
0.013,0.0146484,
0.0135,0.0125122,
0.014,0.0106812,
0.0145,0.0123596,
0.015,0.0157166,
0.0155,0.0178528,
0.016,0.017395,
0.0165,0.0175476,
0.017,0.0134277,
0.0175,0.0108337,
0.018,0.0140381,
0.0185,0.0184631,
0.019,0.0163269,
0.0195,0.0128174,
0.02,0.0102234,
0.0205,0.00839233,
0.021,0.00595093,
0.0215,0.00595093,
0.022,0.00778198,
0.0225,0.00686646,
0.023,0.00488281,
0.0235,0.00274658,
0.024,0.00244141,
0.0245,0.00518799,
0.025,0.00808716,
0.0255,0.0117493,
0.026,0.0123596,
0.0265,0.0152588,
0.027,0.017395,
0.0275,0.0137329,
0.028,0.0105286,
0.0285,0.00869751,
0.029,0.00579834,
0.0295,0.00747681,
0.03,0.00854492,
0.0305,0.00793457,
0.031,0.0114441,
0.0315,0.0126648,
0.032,0.00732422,
0.0325,0.00274658,
0.033,-0.000305176,
0.0335,-0.00366211,
0.034,-0.00549316,
0.0345,-0.00396729,
0.035,-0.00350952,
0.0355,-0.00366211,
0.036,-0.00335693,
0.0365,-0.00320435,
0.037,-0.00473022,
0.0375,-0.00534058,
0.038,-0.00610352,
0.0385,-0.00732422,
0.039,-0.0111389,
0.0395,-0.0106812,
0.04,-0.00762939,
0.0405,-0.00610352,
0.041,-0.00778198,
0.0415,-0.00991821,
0.042,-0.0125122,
0.0425,-0.0161743,
0.043,-0.0192261,
0.0435,-0.0201416,
0.044,-0.0189209,
0.0445,-0.0198364,
0.045,-0.0187683,
0.0455,-0.0196838,
0.046,-0.0201416,
0.0465,-0.0187683,
0.047,-0.0189209,
0.0475,-0.0227356,
0.048,-0.0228882,
0.0485,-0.0195313,
0.049,-0.0166321,
0.0495,-0.0154114,
0.05,-0.0102234,
0.0505,-0.00213623,
0.051,0.000457764,
0.0515,-0.0038147,
0.052,-0.00869751,
0.0525,-0.0120544,
0.053,-0.0134277,
0.0535,-0.0157166,
0.054,-0.0144958,
0.0545,-0.0146484,
0.055,-0.0131226,
0.0555,-0.0062561,
0.056,-0.00244141,
0.0565,-0.00289917,
0.057,-0.00671387,
0.0575,-0.0131226,
0.058,-0.0201416,
0.0585,-0.0239563,
0.059,-0.0233459,
0.0595,-0.0196838,
0.06,-0.0166321,
0.0605,-0.0154114,
0.061,-0.0157166,
0.0615,-0.0177002,
0.062,-0.022583,
0.0625,-0.0263977,
0.063,-0.0267029,
0.0635,-0.020752,
0.064,-0.012207,
0.0645,-0.00915527,
0.065,-0.0109863,
0.0655,-0.00778198,
0.066,-0.00671387,
0.0665,-0.00900269,
0.067,-0.0100708,
0.0675,-0.00854492,
0.068,-0.00488281,
0.0685,-0.00228882,
0.069,-0.00228882,
0.0695,0.000457764,
0.07,0.000762939,
0.0705,-0.00198364,
0.071,-0.00549316,
0.0715,-0.00259399,
0.072,0.00228882,
0.0725,0.00518799,
0.073,0.00442505,
0.0735,0.00320435,
0.074,0.00488281,
0.0745,0.00442505,
0.075,0.00137329,
0.0755,0.00228882,
0.076,0.000152588,
0.0765,-0.00549316,
0.077,-0.00747681,
0.0775,-0.00778198,
0.078,-0.00610352,
0.0785,-0.00183105,
0.079,0.00335693,
0.0795,0.00518799,
0.08,0.0012207,
0.0805,-0.00137329,
0.081,0,
0.0815,0.0012207,
0.082,0.00167847,
0.0825,0.00167847,
0.083,0.00167847,
0.0835,0.00167847,
0.084,0.00350952,
0.0845,0.00534058,
0.085,0.00610352,
0.0855,0.00656128,
0.086,0.00793457,
0.0865,0.00823975,
0.087,0.00747681,
0.0875,0.00839233,
0.088,0.0088501,
0.0885,0.00839233,
0.089,0.00732422,
0.0895,0.00808716,
0.09,0.00793457,
0.0905,0.00396729,
0.091,-0.0012207,
0.0915,-0.00244141,
0.092,-0.00213623,
0.0925,-0.00564575,
0.093,-0.00411987,
0.0935,-0.00183105,
0.094,0.000305176,
0.0945,0,
0.095,-0.00106812,
0.0955,-0.000457764,
0.096,0.000762939,
0.0965,-0.000610352,
0.097,-0.00366211,
0.0975,-0.0038147,
0.098,-0.00350952,
0.0985,-0.00488281,
0.099,-0.00534058,
0.0995,-0.00244141,
0.1,-0.00152588,
0.1005,-0.000915527,
0.101,-0.00274658,
0.1015,-0.00411987,
0.102,-0.00213623,
0.1025,0.000762939,
0.103,0.0050354,
0.1035,0.00900269,
0.104,0.00793457,
0.1045,0.00549316,
0.105,0.00549316,
0.1055,0.00656128,
0.106,0.00656128,
0.1065,0.00534058,
0.107,0.00778198,
0.1075,0.00976563,
0.108,0.00610352,
0.1085,0.00289917,
0.109,0.000152588,
0.1095,-0.000915527,
0.11,-0.0012207,
0.1105,-0.0038147,
0.111,-0.00564575,
0.1115,-0.00717163,
0.112,-0.00778198,
0.1125,-0.00473022,
0.113,-0.00350952,
0.1135,-0.00442505,
0.114,-0.00198364,
0.1145,0.00213623,
0.115,0.00198364,
0.1155,0.00213623,
0.116,0.0050354,
0.1165,0.00808716,
0.117,0.0111389,
0.1175,0.00808716,
0.118,0.00244141,
0.1185,0.000915527,
0.119,-0.000457764,
0.1195,-0.00198364,
0.12,-0.0012207,
0.1205,-0.00137329,
0.121,-0.00305176,
0.1215,-0.00610352,
0.122,-0.00640869,
0.1225,-0.00457764,
0.123,-0.00701904,
0.1235,-0.00976563,
0.124,-0.0120544,
0.1245,-0.0149536,
0.125,-0.0152588,
0.1255,-0.0141907,
0.126,-0.0128174,
0.1265,-0.00961304,
0.127,-0.00457764,
0.1275,-0.00198364,
0.128,0.000457764,
0.1285,-0.000305176,
0.129,-0.000762939,
0.1295,-0.000762939,
0.13,0.0012207,
0.1305,0.00320435,
0.131,0.00488281,
0.1315,0.00289917,
0.132,0.00183105,
0.1325,-0.000305176,
0.133,-0.00213623,
0.1335,-0.0012207,
0.134,0.000762939,
0.1345,0.00274658,
0.135,0.00213623,
0.1355,0.000152588,
0.136,-0.00198364,
0.1365,-0.00320435,
0.137,-0.00350952,
0.1375,-0.00442505,
0.138,-0.00411987,
0.1385,-0.00610352,
0.139,-0.00442505,
0.1395,-0.00198364,
0.14,-0.0012207,
0.1405,-0.00228882,
0.141,-0.00350952,
0.1415,-0.00793457,
0.142,-0.0112915,
0.1425,-0.0106812,
0.143,-0.00656128,
0.1435,0.000152588,
0.144,0.00198364,
0.1445,0.0012207,
0.145,-0.00396729,
0.1455,-0.0102234,
0.146,-0.0140381,
0.1465,-0.0131226,
0.147,-0.00656128,
0.1475,-0.00244141,
0.148,0.000305176,
0.1485,0.00183105,
0.149,0.00350952,
0.1495,0.00869751,
0.15,0.012207,
0.1505,0.00839233,
0.151,0.00564575,
0.1515,0.00411987,
0.152,0.00244141,
0.1525,0.00137329,
0.153,0.000305176,
0.1535,-0.000762939,
0.154,-0.00228882,
0.1545,-0.00335693,
0.155,-0.00305176,
0.1555,-0.00473022,
0.156,-0.00549316,
0.1565,-0.00808716,
0.157,-0.0112915,
0.1575,-0.0137329,
0.158,-0.0088501,
0.1585,-0.00808716,
0.159,-0.00839233,
0.1595,-0.00961304,
0.16,-0.010376,
0.1605,-0.00900269,
0.161,-0.00900269,
0.1615,-0.0114441,
0.162,-0.0114441,
0.1625,-0.0134277,
0.163,-0.010376,
0.1635,-0.00701904,
0.164,-0.00427246,
0.1645,-0.00183105,
0.165,0.000762939,
0.1655,0.0012207,
0.166,0.00152588,
0.1665,0.00320435,
0.167,0.00396729,
0.1675,0.0038147,
0.168,0.00259399,
0.1685,0.00183105,
0.169,0.00152588,
0.1695,0.000152588,
0.17,-0.000762939,
0.1705,0.000915527,
0.171,0.00259399,
0.1715,-0.000762939,
0.172,-0.00106812,
0.1725,-0.0012207,
0.173,-0.00213623,
0.1735,-0.00152588,
0.174,-0.00106812,
0.1745,-0.000915527,
0.175,0.00274658,
0.1755,0.00320435,
0.176,0.000762939,
0.1765,-0.000152588,
0.177,0.00213623,
0.1775,0.00396729,
0.178,0.00595093,
0.1785,0.00701904,
0.179,0.00320435,
0.1795,-0.0012207,
0.18,-0.00289917,
0.1805,-0.00305176,
0.181,-0.000457764,
0.1815,0.00106812,
0.182,0.00167847,
0.1825,0.00259399,
0.183,0.00610352,
0.1835,0.00335693,
0.184,-0.00137329,
0.1845,-0.00549316,
0.185,-0.00411987,
0.1855,0.00152588,
0.186,0.00839233,
0.1865,0.0137329,
0.187,0.0177002,
0.1875,0.019989,
0.188,0.017395,
0.1885,0.0146484,
0.189,0.0125122,
0.1895,0.01297,
0.19,0.0117493,
0.1905,0.00839233,
0.191,0.00640869,
0.1915,0.00259399,
0.192,-0.00457764,
0.1925,-0.00915527,
0.193,-0.00900269,
0.1935,-0.00976563,
0.194,-0.0119019,
0.1945,-0.0128174,
0.195,-0.0117493,
0.1955,-0.012207,
0.196,-0.0112915,
0.1965,-0.0106812,
0.197,-0.0106812,
0.1975,-0.0088501,
0.198,-0.00686646,
0.1985,-0.00411987,
0.199,-0.00228882,
0.1995,-0.00259399,
0.2,-0.0012207,
0.2005,0.00213623,
0.201,0.00350952,
0.2015,0.00244141,
0.202,0.00335693,
0.2025,0.00411987,
0.203,0.00396729,
0.2035,0.00213623,
0.204,0.000610352,
0.2045,0.000457764,
0.205,-0.00152588,
0.2055,-0.0012207,
0.206,-0.0012207,
0.2065,-0.00305176,
0.207,-0.00457764,
0.2075,-0.00549316,
0.208,-0.00411987,
0.2085,-0.00366211,
0.209,-0.0038147,
0.2095,-0.0050354,
0.21,-0.00701904,
0.2105,-0.00656128,
0.211,-0.00762939,
0.2115,-0.00778198,
0.212,-0.00518799,
0.2125,-0.00518799,
0.213,-0.00396729,
0.2135,-0.00213623,
0.214,-0.0012207,
0.2145,-0.00137329,
0.215,-0.00396729,
0.2155,-0.00534058,
0.216,-0.00350952,
0.2165,0.00152588,
0.217,0.00823975,
0.2175,0.0102234,
0.218,0.00488281,
0.2185,0.00213623,
0.219,0.000305176,
0.2195,0.00106812,
0.22,0.00320435,
0.2205,0.00411987,
0.221,0.00701904,
0.2215,0.00656128,
0.222,0.00305176,
0.2225,0.00106812,
0.223,0.00396729,
0.2235,0.00259399,
0.224,-0.00137329,
0.2245,-0.00305176,
0.225,-0.00335693,
0.2255,-0.00411987,
0.226,0.000915527,
0.2265,0.00595093,
0.227,0.00167847,
0.2275,-0.00152588,
0.228,0.000305176,
0.2285,0.0012207,
0.229,0.00137329,
0.2295,-0.00167847,
0.23,-0.00152588,
0.2305,-0.00244141,
0.231,-0.00137329,
0.2315,0.00213623,
0.232,0.00427246,
0.2325,0.0062561,
0.233,0.00396729,
0.2335,0.000762939,
0.234,0.0012207,
0.2345,0.00106812,
0.235,0.00137329,
0.2355,0.00137329,
0.236,0.000152588,
0.2365,-0.000610352,
0.237,-0.00289917,
0.2375,-0.0062561,
0.238,-0.0062561,
0.2385,-0.00762939,
0.239,-0.00854492,
0.2395,-0.0112915,
0.24,-0.0125122,
0.2405,-0.0132751,
0.241,-0.0149536,
0.2415,-0.0154114,
0.242,-0.0152588,
0.2425,-0.0134277,
0.243,-0.00991821,
0.2435,-0.00457764,
0.244,-0.000457764,
0.2445,0.00305176,
0.245,0.00549316,
0.2455,0.00442505,
0.246,0.00457764,
0.2465,0.00366211,
0.247,0.000457764,
0.2475,-0.00183105,
0.248,-0.00137329,
0.2485,-0.00167847,
0.249,-0.00427246,
0.2495,-0.00549316,
0.25,-0.00427246,
0.2505,-0.00549316,
0.251,-0.00930786,
0.2515,-0.0120544,
0.252,-0.0131226,
0.2525,-0.0138855,
0.253,-0.0108337,
0.2535,-0.00854492,
0.254,-0.00823975,
0.2545,-0.0062561,
0.255,-0.00442505,
0.2555,-0.00335693,
0.256,-0.000610352,
0.2565,-0.000762939,
0.257,-0.00259399,
0.2575,-0.00457764,
0.258,-0.00564575,
0.2585,-0.0038147,
0.259,-0.00320435,
0.2595,-0.00289917,
0.26,-0.00213623,
0.2605,-0.00427246,
0.261,-0.00564575,
0.2615,-0.00564575,
0.262,-0.00442505,
0.2625,-0.00350952,
0.263,-0.00305176,
0.2635,-0.00183105,
0.264,-0.000915527,
0.2645,0.00106812,
0.265,0.00518799,
0.2655,0.00717163,
0.266,0.00534058,
0.2665,0.00457764,
0.267,0.00534058,
0.2675,0.00274658,
0.268,0.00198364,
0.2685,0.00183105,
0.269,0.00137329,
0.2695,0,
0.27,-0.000610352,
0.2705,-0.000915527,
0.271,-0.0012207,
0.2715,-0.00442505,
0.272,-0.00534058,
0.2725,-0.00579834,
0.273,-0.00717163,
0.2735,-0.00778198,
0.274,-0.0062561,
0.2745,-0.00595093,
0.275,-0.00778198,
0.2755,-0.00930786,
0.276,-0.00900269,
0.2765,-0.0117493,
0.277,-0.0138855,
0.2775,-0.0123596,
0.278,-0.0123596,
0.2785,-0.0117493,
0.279,-0.0112915,
0.2795,-0.012207,
0.28,-0.0125122,
0.2805,-0.00961304,
0.281,-0.00534058,
0.2815,-0.00366211,
0.282,-0.00289917,
0.2825,-0.000305176,
0.283,-0.000457764,
0.2835,0,
0.284,0.00488281,
0.2845,0.0105286,
0.285,0.0114441,
0.2855,0.00961304,
0.286,0.00534058,
0.2865,-0.000915527,
0.287,-0.00610352,
0.2875,-0.00762939,
0.288,-0.00839233,
0.2885,-0.0114441,
0.289,-0.0140381,
0.2895,-0.0152588,
0.29,-0.0138855,
0.2905,-0.0132751,
0.291,-0.0125122,
0.2915,-0.00778198,
0.292,0.000457764,
0.2925,0.00305176,
0.293,0.00259399,
0.2935,0.00335693,
0.294,0.0038147,
0.2945,0.00106812,
0.295,-0.000305176,
0.2955,-0.00106812,
0.296,-0.00259399,
0.2965,-0.00305176,
0.297,-0.0038147,
0.2975,-0.00442505,
0.298,-0.00244141,
0.2985,-0.00106812,
0.299,-0.000762939,
0.2995,0.000610352,
0.3,-0.000457764,
0.3005,-0.000915527,
0.301,-0.00228882,
0.3015,-0.00198364,
0.302,-0.00411987,
0.3025,-0.00335693,
0.303,0,
0.3035,0.00320435,
0.304,0.00549316,
0.3045,0.00488281,
0.305,0.00411987,
0.3055,0.00534058,
0.306,0.00640869,
0.3065,0.0062561,
0.307,0.00305176,
0.3075,0.00183105,
0.308,0.0012207,
0.3085,-0.00198364,
0.309,-0.00442505,
0.3095,-0.00549316,
0.31,-0.0062561,
0.3105,-0.00915527,
0.311,-0.0114441,
0.3115,-0.0102234,
0.312,-0.0117493,
0.3125,-0.0128174,
0.313,-0.01297,
0.3135,-0.0128174,
0.314,-0.0112915,
0.3145,-0.00701904,
0.315,-0.00335693,
0.3155,-0.00289917,
0.316,-0.00411987,
0.3165,-0.00228882,
0.317,0.000152588,
0.3175,0.000152588,
0.318,0.0012207,
0.3185,0.0012207,
0.319,-0.00137329,
0.3195,0.000457764,
0.32,0.00137329,
0.3205,0.00167847,
0.321,0.00152588,
0.3215,-0.000457764,
0.322,-0.00228882,
0.3225,-0.00335693,
0.323,-0.00305176,
0.3235,-0.00183105,
0.324,-0.000762939,
0.3245,0.0012207,
0.325,0.00488281,
0.3255,0.00595093,
0.326,0.00152588,
0.3265,-0.00228882,
0.327,-0.00457764,
0.3275,-0.00564575,
0.328,-0.00564575,
0.3285,-0.00350952,
0.329,-0.000610352,
0.3295,-0.000457764,
0.33,-0.000762939,
0.3305,0.000610352,
0.331,-0.000457764,
0.3315,-0.00167847,
0.332,-0.000152588,
0.3325,-0.000305176,
0.333,-0.000915527,
0.3335,-0.000762939,
0.334,0.000915527,
0.3345,0.00305176,
0.335,0.00396729,
0.3355,0.00411987,
0.336,0.00411987,
0.3365,0.00564575,
0.337,0.00457764,
0.3375,0.0012207,
0.338,0.000152588,
0.3385,0.00411987,
0.339,0.00595093,
0.3395,0.00442505,
0.34,0.00106812,
0.3405,-0.000457764,
0.341,-0.000457764,
0.3415,0.00198364,
0.342,0.000457764,
0.3425,-0.000305176,
0.343,0.000457764,
0.3435,0.00106812,
0.344,-0.00167847,
0.3445,-0.00473022,
0.345,-0.0038147,
0.3455,-0.00167847,
0.346,-0.000762939,
0.3465,0.000610352,
0.347,0.00152588,
0.3475,0.00152588,
0.348,0.00183105,
0.3485,0.00320435,
0.349,0.00396729,
0.3495,0.00396729,
0.35,0.00518799,
0.3505,0.00320435,
0.351,0.00396729,
0.3515,0.00488281,
0.352,0.00137329,
0.3525,-0.00152588,
0.353,0,
0.3535,-0.00167847,
0.354,-0.000915527,
0.3545,0.00244141,
0.355,0.00442505,
0.3555,-0.000305176,
0.356,-0.00152588,
0.3565,-0.00396729,
0.357,-0.00549316,
0.3575,-0.00701904,
0.358,-0.00823975,
0.3585,-0.00762939,
0.359,-0.00473022,
0.3595,-0.00350952,
0.36,-0.00183105,
0.3605,-0.000762939,
0.361,0.000762939,
0.3615,-0.000152588,
0.362,-0.00259399,
0.3625,-0.00640869,
0.363,-0.0062561,
0.3635,-0.00778198,
0.364,-0.00930786,
0.3645,-0.00854492,
0.365,-0.00823975,
0.3655,-0.00656128,
0.366,-0.00579834,
0.3665,-0.00610352,
0.367,-0.00701904,
0.3675,-0.00762939,
0.368,-0.00518799,
0.3685,-0.00534058,
0.369,-0.00534058,
0.3695,-0.00564575,
0.37,-0.00595093,
0.3705,-0.00579834,
0.371,-0.00701904,
0.3715,-0.00473022,
0.372,-0.0038147,
0.3725,-0.00457764,
0.373,-0.00427246,
0.3735,-0.00640869,
0.374,-0.00640869,
0.3745,-0.00595093,
0.375,-0.00595093,
0.3755,-0.00564575,
0.376,-0.00549316,
0.3765,-0.00457764,
0.377,-0.00518799,
0.3775,-0.00549316,
0.378,-0.00579834,
0.3785,-0.0062561,
0.379,-0.00778198,
0.3795,-0.00778198,
0.38,-0.00656128,
0.3805,-0.00717163,
0.381,-0.00793457,
0.3815,-0.00656128,
0.382,-0.00564575,
0.3825,-0.0038147,
0.383,-0.00320435,
0.3835,0.000305176,
0.384,0.00274658,
0.3845,0.00366211,
0.385,0.00259399,
0.3855,0.00183105,
0.386,0.00350952,
0.3865,0.00518799,
0.387,0.00274658,
0.3875,-0.000762939,
0.388,0.000305176,
0.3885,-0.000305176,
0.389,-0.000915527,
0.3895,-0.00244141,
0.39,-0.00442505,
0.3905,-0.0038147,
0.391,-0.00289917,
0.3915,0.00137329,
0.392,0.00198364,
0.3925,0.00167847,
0.393,0.00152588,
0.3935,0,
0.394,-0.000457764,
0.3945,0.00106812,
0.395,0.00244141,
0.3955,-0.000915527,
0.396,-0.00259399,
0.3965,-0.00305176,
0.397,-0.00274658,
0.3975,0.000152588,
0.398,0.00442505,
0.3985,0.00717163,
0.399,0.00427246,
0.3995,0.00366211,
0.4,0.0050354,
0.4005,0.00106812,
0.401,-0.0050354,
0.4015,-0.00778198,
0.402,-0.00823975,
0.4025,-0.00961304,
0.403,-0.00854492,
0.4035,-0.00488281,
0.404,-0.00259399,
0.4045,0.00457764,
0.405,0.00473022,
0.4055,0.00305176,
0.406,0.0038147,
0.4065,0.00549316,
0.407,0.00427246,
0.4075,0.00289917,
0.408,0.00183105,
0.4085,0.00320435,
0.409,0.00579834,
0.4095,0.00793457,
0.41,0.00915527,
0.4105,0.0119019,
0.411,0.0112915,
0.4115,0.00610352,
0.412,-0.0012207,
0.4125,-0.00946045,
0.413,-0.0135803,
0.4135,-0.0135803,
0.414,-0.0117493,
0.4145,-0.012207,
0.415,-0.01297,
0.4155,-0.0131226,
0.416,-0.0146484,
0.4165,-0.0134277,
0.417,-0.00976563,
0.4175,-0.00839233,
0.418,-0.00579834,
0.4185,-0.0012207,
0.419,0.00274658,
0.4195,0.0062561,
0.42,0.0128174,
0.4205,0.0157166,
0.421,0.0161743,
0.4215,0.0143433,
0.422,0.010376,
0.4225,0.00442505,
0.423,0.00259399,
0.4235,0.00137329,
0.424,-0.00167847,
0.4245,-0.000915527,
0.425,0.00213623,
0.4255,0.0050354,
0.426,0.00656128,
0.4265,0.00656128,
0.427,0.0050354,
0.4275,0.00640869,
0.428,0.00869751,
0.4285,0.00595093,
0.429,0.000915527,
0.4295,0,
0.43,0.000457764,
0.4305,0.000915527,
0.431,-0.00366211,
0.4315,-0.00976563,
0.432,-0.0105286,
0.4325,-0.00396729,
0.433,-0.000610352,
0.4335,-0.00137329,
0.434,-0.00137329,
0.4345,0.000457764,
0.435,0.000152588,
0.4355,0.00213623,
0.436,0.00259399,
0.4365,0.00289917,
0.437,0.00198364,
0.4375,-0.00167847,
0.438,-0.00289917,
0.4385,-0.0012207,
0.439,0.000305176,
0.4395,-0.00320435,
0.44,-0.00228882,
0.4405,-0.0012207,
0.441,-0.00305176,
0.4415,-0.00518799,
0.442,-0.00869751,
0.4425,-0.0102234,
0.443,-0.0106812,
0.4435,-0.0108337,
0.444,-0.0105286,
0.4445,-0.0109863,
0.445,-0.0105286,
0.4455,-0.0109863,
0.446,-0.012207,
0.4465,-0.0128174,
0.447,-0.0111389,
0.4475,-0.00930786,
0.448,-0.00823975,
0.4485,-0.00823975,
0.449,-0.00793457,
0.4495,-0.00473022,
0.45,-0.00350952,
0.4505,-0.00350952,
0.451,-0.00610352,
0.4515,-0.00579834,
0.452,-0.00228882,
0.4525,0.00183105,
0.453,0.00350952,
0.4535,0.00259399,
0.454,0.000762939,
0.4545,0.00305176,
0.455,0.00534058,
0.4555,0.00427246,
0.456,0.000152588,
0.4565,-0.00640869,
0.457,-0.00839233,
0.4575,-0.00671387,
0.458,-0.00640869,
0.4585,-0.00869751,
0.459,-0.0088501,
0.4595,-0.00839233,
0.46,-0.00839233,
0.4605,-0.00762939,
0.461,-0.00518799,
0.4615,-0.00610352,
0.462,-0.00854492,
0.4625,-0.00839233,
0.463,-0.0062561,
0.4635,-0.00579834,
0.464,-0.00610352,
0.4645,-0.00717163,
0.465,-0.00518799,
0.4655,-0.00396729,
0.466,-0.00518799,
0.4665,-0.00686646,
0.467,-0.00473022,
0.4675,-0.00335693,
0.468,-0.000305176,
0.4685,0,
0.469,-0.000915527,
0.4695,-0.00137329,
0.47,-0.0038147,
0.4705,-0.00549316,
0.471,-0.00534058,
0.4715,-0.00259399,
0.472,-0.00457764,
0.4725,-0.00335693,
0.473,-0.00152588,
0.4735,0.000152588,
0.474,-0.00320435,
0.4745,-0.0038147,
0.475,-0.00534058,
0.4755,-0.00518799,
0.476,-0.00228882,
0.4765,0,
0.477,-0.00244141,
0.4775,-0.00732422,
0.478,-0.00900269,
0.4785,-0.0119019,
0.479,-0.017395,
0.4795,-0.0163269,
0.48,-0.0109863,
0.4805,-0.00686646,
0.481,-0.00427246,
0.4815,-0.00228882,
0.482,-0.00442505,
0.4825,-0.00869751,
0.483,-0.010376,
0.4835,-0.0106812,
0.484,-0.00823975,
0.4845,-0.00335693,
0.485,0.000152588,
0.4855,-0.000762939,
0.486,-0.00534058,
0.4865,-0.00610352,
0.487,-0.00549316,
0.4875,-0.00396729,
0.488,-0.00183105,
0.4885,-0.00244141,
0.489,-0.00350952,
0.4895,-0.0062561,
0.49,-0.00610352,
0.4905,-0.00595093,
0.491,-0.00610352,
0.4915,-0.00732422,
0.492,-0.00930786,
0.4925,-0.00686646,
0.493,-0.00411987,
0.4935,-0.00213623,
0.494,-0.00411987,
0.4945,-0.00518799,
0.495,-0.000915527,
0.4955,0.000610352,
0.496,0,
0.4965,-0.00259399,
0.497,-0.00457764,
0.4975,-0.0038147,
0.498,0,
0.4985,0.00198364,
0.499,0.00671387,
0.4995,0.0115967,
0.5,0.0152588,
0.5005,0.0157166,
0.501,0.0106812,
0.5015,0.00106812,
0.502,-0.00793457,
0.5025,-0.01297,
0.503,-0.0100708,
0.5035,-0.00518799,
0.504,-0.000610352,
0.5045,0.00152588,
0.505,0.00350952,
0.5055,0.00701904,
0.506,0.00854492,
0.5065,0.00701904,
0.507,0.0038147,
0.5075,0.00335693,
0.508,0.00106812,
0.5085,0.000305176,
0.509,0.00289917,
0.5095,0.00488281,
0.51,0.00289917,
0.5105,-0.0012207,
0.511,-0.00152588,
0.5115,-0.00305176,
0.512,-0.00808716,
0.5125,-0.00976563,
0.513,-0.00976563,
0.5135,-0.0038147,
0.514,-0.000305176,
0.5145,-0.000457764,
0.515,-0.00366211,
0.5155,-0.00518799,
0.516,-0.00396729,
0.5165,-0.00213623,
0.517,-0.00106812,
0.5175,-0.00213623,
0.518,-0.000305176,
0.5185,0.00900269,
0.519,0.0161743,
0.5195,0.0183105,
0.52,0.0160217,
0.5205,0.0170898,
0.521,0.0187683,
0.5215,0.0221252,
0.522,0.0247192,
0.5225,0.0224304,
0.523,0.0178528,
0.5235,0.0108337,
0.524,0.00106812,
0.5245,-0.00762939,
0.525,-0.0114441,
0.5255,-0.0126648,
0.526,-0.0125122,
0.5265,-0.0088501,
0.527,-0.0119019,
0.5275,-0.0164795,
0.528,-0.0115967,
0.5285,-0.00793457,
0.529,-0.00778198,
0.5295,-0.00823975,
0.53,-0.0100708,
0.5305,-0.0112915,
0.531,-0.0062561,
0.5315,-0.00213623,
0.532,-0.00305176,
0.5325,-0.00473022,
0.533,-0.00549316,
0.5335,-0.00350952,
0.534,-0.00823975,
0.5345,-0.0161743,
0.535,-0.017395,
0.5355,-0.0140381,
0.536,-0.00778198,
0.5365,-0.0012207,
0.537,0.00106812,
0.5375,0.000305176,
0.538,0.00106812,
0.5385,0.00274658,
0.539,0.00183105,
0.5395,-0.00198364,
0.54,-0.0062561,
0.5405,-0.00778198,
0.541,-0.00839233,
0.5415,-0.0100708,
0.542,-0.0100708,
0.5425,-0.00701904,
0.543,-0.00442505,
0.5435,-0.00198364,
0.544,-0.00228882,
0.5445,-0.0012207,
0.545,0.00183105,
0.5455,0.000457764,
0.546,-0.000610352,
0.5465,-0.00198364,
0.547,-0.00183105,
0.5475,-0.00259399,
0.548,-0.00335693,
0.5485,-0.00320435,
0.549,-0.00488281,
0.5495,-0.00762939,
0.55,-0.00930786,
0.5505,-0.0102234,
0.551,-0.00732422,
0.5515,-0.00442505,
0.552,-0.00213623,
0.5525,-0.00259399,
0.553,-0.00289917,
0.5535,-0.0012207,
0.554,0.000457764,
0.5545,-0.00183105,
0.555,-0.00198364,
0.5555,-0.00442505,
0.556,-0.00701904,
0.5565,-0.00808716,
0.557,-0.0109863,
0.5575,-0.00961304,
0.558,-0.00854492,
0.5585,-0.00869751,
0.559,-0.0108337,
0.5595,-0.00762939,
0.56,-0.00411987,
0.5605,-0.00228882,
0.561,-0.00579834,
0.5615,-0.00732422,
0.562,-0.00595093,
0.5625,-0.00106812,
0.563,0.000915527,
0.5635,0.00167847,
0.564,0.000305176,
0.5645,0.000457764,
0.565,0.000152588,
0.5655,0.000762939,
0.566,0.00137329,
0.5665,0,
0.567,-0.000305176,
0.5675,0.00289917,
0.568,0.00671387,
0.5685,0.0050354,
0.569,0.00289917,
0.5695,0.00167847,
0.57,0.000152588,
0.5705,-0.000610352,
0.571,0.00106812,
0.5715,0.00320435,
0.572,0.00656128,
0.5725,0.00686646,
0.573,0.00717163,
0.5735,0.00946045,
0.574,0.00732422,
0.5745,0.000305176,
0.575,-0.00488281,
0.5755,-0.0117493,
0.576,-0.012207,
0.5765,-0.00686646,
0.577,-0.00427246,
0.5775,-0.00335693,
0.578,-0.00320435,
0.5785,-0.0038147,
0.579,-0.00289917,
0.5795,-0.00183105,
0.58,-0.00320435,
0.5805,-0.00473022,
0.581,-0.00686646,
0.5815,-0.00457764,
0.582,-0.00198364,
0.5825,-0.00198364,
0.583,0.000305176,
0.5835,0.000610352,
0.584,-0.00183105,
0.5845,-0.00427246,
0.585,-0.00366211,
0.5855,-0.00183105,
0.586,0.000305176,
0.5865,0.000152588,
0.587,0.000762939,
0.5875,-0.00183105,
0.588,-0.00259399,
0.5885,0,
0.589,0.00106812,
0.5895,-0.00198364,
0.59,-0.00320435,
0.5905,-0.00350952,
0.591,-0.00350952,
0.5915,-0.00518799,
0.592,-0.00701904,
0.5925,-0.00793457,
0.593,-0.00656128,
0.5935,-0.00564575,
0.594,-0.00411987,
0.5945,-0.00473022,
0.595,-0.00198364,
0.5955,0.00213623,
0.596,0.0050354,
0.5965,0.00411987,
0.597,-0.000915527,
0.5975,-0.00228882,
0.598,0.000457764,
0.5985,0.0050354,
0.599,0.0111389,
0.5995,0.0172424,
0.6,0.0201416,
0.6005,0.0205994,
0.601,0.0175476,
0.6015,0.0128174,
0.602,0.00534058,
0.6025,0.000762939,
0.603,0.00106812,
0.6035,0.0012207,
0.604,0.00137329,
0.6045,0.000305176,
0.605,0.000915527,
0.6055,-0.000305176,
0.606,-0.000610352,
0.6065,-0.00289917,
0.607,-0.00320435,
0.6075,-0.00488281,
0.608,-0.00595093,
0.6085,-0.00686646,
0.609,-0.00289917,
0.6095,0.000457764,
0.61,-0.000152588,
0.6105,-0.000762939,
0.611,0.00152588,
0.6115,0.00442505,
0.612,0.00640869,
0.6125,0.00946045,
0.613,0.0088501,
0.6135,0.00488281,
0.614,0.00411987,
0.6145,0.00289917,
0.615,-0.00228882,
0.6155,-0.00686646,
0.616,-0.00808716,
0.6165,-0.00823975,
0.617,-0.00793457,
0.6175,-0.00442505,
0.618,0,
0.6185,0.00244141,
0.619,0.00106812,
0.6195,0.00320435,
0.62,0.00762939,
0.6205,0.010376,
0.621,0.012207,
0.6215,0.0100708,
0.622,0.00518799,
0.6225,-0.000610352,
0.623,-0.00442505,
0.6235,-0.00732422,
0.624,-0.00778198,
0.6245,-0.00427246,
0.625,0.000762939,
0.6255,-0.000762939,
0.626,-0.00717163,
0.6265,-0.0114441,
0.627,-0.0144958,
0.6275,-0.0186157,
0.628,-0.0218201,
0.6285,-0.0244141,
0.629,-0.0230408,
0.6295,-0.0195313,
0.63,-0.0166321,
0.6305,-0.015564,
0.631,-0.0137329,
0.6315,-0.0144958,
0.632,-0.0100708,
0.6325,-0.00717163,
0.633,-0.00793457,
0.6335,-0.00930786,
0.634,-0.010376,
0.6345,-0.00915527,
0.635,-0.00823975,
0.6355,-0.00961304,
0.636,-0.00869751,
0.6365,-0.00869751,
0.637,-0.0115967,
0.6375,-0.0125122,
0.638,-0.0112915,
0.6385,-0.00961304,
0.639,-0.00823975,
0.6395,-0.00854492,
0.64,-0.0119019,
0.6405,-0.0152588,
0.641,-0.0125122,
0.6415,-0.00961304,
0.642,-0.00854492,
0.6425,-0.00595093,
0.643,-0.000457764,
0.6435,0.00534058,
0.644,0.00488281,
0.6445,0.0012207,
0.645,0.0012207,
0.6455,0.00320435,
0.646,0.00396729,
0.6465,0.00442505,
0.647,0.00595093,
0.6475,0.00930786,
0.648,0.00976563,
0.6485,0.00930786,
0.649,0.00976563,
0.6495,0.00396729,
0.65,-0.00427246,
0.6505,-0.00778198,
0.651,-0.00854492,
0.6515,-0.0109863,
0.652,-0.0109863,
0.6525,-0.00961304,
0.653,-0.0126648,
0.6535,-0.0115967,
0.654,-0.00823975,
0.6545,-0.00976563,
0.655,-0.0114441,
0.6555,-0.0108337,
0.656,-0.00747681,
0.6565,-0.00457764,
0.657,-0.00549316,
0.6575,-0.00808716,
0.658,-0.00686646,
0.6585,-0.0050354,
0.659,-0.00686646,
0.6595,-0.00930786,
0.66,-0.010376,
0.6605,-0.00854492,
0.661,-0.00473022,
0.6615,0.00152588,
0.662,0.00366211,
0.6625,0.00427246,
0.663,0.00396729,
0.6635,0.0012207,
0.664,0.00320435,
0.6645,0.00488281,
0.665,0.00167847,
0.6655,0.00152588,
0.666,0.00137329,
0.6665,0,
0.667,-0.000610352,
0.6675,0.00228882,
0.668,0.00335693,
0.6685,0.000610352,
0.669,-0.00152588,
0.6695,0.000915527,
0.67,0.00915527,
0.6705,0.0126648,
0.671,0.0102234,
0.6715,0.00610352,
0.672,0.00427246,
0.6725,0.00442505,
0.673,0.00534058,
0.6735,0.00442505,
0.674,0.00244141,
0.6745,0.000610352,
0.675,0.000610352,
0.6755,-0.00213623,
0.676,-0.00305176,
0.6765,-0.00350952,
0.677,-0.00137329,
0.6775,-0.000915527,
0.678,0.000762939,
0.6785,0.00152588,
0.679,0.000152588,
0.6795,-0.000915527,
0.68,0.000762939,
0.6805,0.00152588,
0.681,0.00183105,
0.6815,0.0012207,
0.682,-0.000305176,
0.6825,-0.00213623,
0.683,-0.00274658,
0.6835,-0.000457764,
0.684,0.000305176,
0.6845,0.000762939,
0.685,0.00137329,
0.6855,0.00137329,
0.686,0.00167847,
0.6865,0.0012207,
0.687,-0.000305176,
0.6875,-0.000610352,
0.688,-0.0038147,
0.6885,-0.00198364,
0.689,0,
0.6895,-0.00198364,
0.69,-0.00289917,
0.6905,-0.00228882,
0.691,-0.00457764,
0.6915,-0.00686646,
0.692,-0.00778198,
0.6925,-0.00869751,
0.693,-0.0112915,
0.6935,-0.0108337,
0.694,-0.00747681,
0.6945,-0.00396729,
0.695,-0.000457764,
0.6955,0.00183105,
0.696,0.00686646,
0.6965,0.0132751,
0.697,0.0167847,
0.6975,0.0137329,
0.698,0.0108337,
0.6985,0.00930786,
0.699,0.00854492,
0.6995,0.00549316,
0.7,0.00411987,
0.7005,0.0135803,
0.701,0.0219727,
0.7015,0.0215149,
0.702,0.0149536,
0.7025,0.00991821,
0.703,0.00320435,
0.7035,-0.00701904,
0.704,-0.0170898,
0.7045,-0.0254822,
0.705,-0.0228882,
0.7055,-0.017395,
0.706,-0.0106812,
0.7065,-0.00534058,
0.707,-0.00289917,
0.7075,-0.00778198,
0.708,-0.0111389,
0.7085,-0.00747681,
0.709,-0.00289917,
0.7095,0.000610352,
0.71,0.00289917,
0.7105,0.00350952,
0.711,0.000610352,
0.7115,-0.00244141,
0.712,-0.00442505,
0.7125,-0.00228882,
0.713,-0.00106812,
0.7135,-0.000457764,
0.714,0.000457764,
0.7145,-0.000457764,
0.715,-0.00366211,
0.7155,-0.00427246,
0.716,-0.00640869,
0.7165,-0.00778198,
0.717,-0.00823975,
0.7175,-0.00900269,
0.718,-0.00671387,
0.7185,-0.00320435,
0.719,-0.00244141,
0.7195,-0.00137329,
0.72,-0.000762939,
0.7205,0.000610352,
0.721,-0.000610352,
0.7215,-0.00274658,
0.722,-0.00518799,
0.7225,-0.00732422,
0.723,-0.0109863,
0.7235,-0.0106812,
0.724,-0.00930786,
0.7245,-0.0100708,
0.725,-0.010376,
0.7255,-0.0108337,
0.726,-0.0119019,
0.7265,-0.0088501,
0.727,-0.00274658,
0.7275,0.0050354,
0.728,0.0100708,
0.7285,0.0132751,
0.729,0.0135803,
0.7295,0.0132751,
0.73,0.010376,
0.7305,0.00549316,
0.731,0.0012207,
0.7315,-0.00106812,
0.732,-0.00656128,
0.7325,-0.0138855,
0.733,-0.0169373,
0.7335,-0.0144958,
0.734,-0.0125122,
0.7345,-0.0137329,
0.735,-0.0100708,
0.7355,-0.00701904,
0.736,-0.00762939,
0.7365,-0.00976563,
0.737,-0.0105286,
0.7375,-0.00976563,
0.738,-0.00549316,
0.7385,0.0012207,
0.739,0.00305176,
0.7395,0.00213623,
0.74,-0.00167847,
0.7405,-0.00305176,
0.741,-0.00350952,
0.7415,-0.00457764,
0.742,-0.00396729,
0.7425,-0.00335693,
0.743,-0.0038147,
0.7435,-0.0102234,
0.744,-0.0154114,
0.7445,-0.015564,
0.745,-0.0125122,
0.7455,-0.0108337,
0.746,-0.00747681,
0.7465,-0.00656128,
0.747,-0.00747681,
0.7475,-0.00808716,
0.748,-0.00793457,
0.7485,-0.00823975,
0.749,-0.00793457,
0.7495,-0.00656128,
0.75,-0.00717163,
0.7505,-0.00411987,
0.751,0.000762939,
0.7515,0.000305176,
0.752,-0.00213623,
0.7525,-0.00305176,
0.753,-0.00137329,
0.7535,0.00305176,
0.754,0.0114441,
0.7545,0.0215149,
0.755,0.0268555,
0.7555,0.0280762,
0.756,0.0280762,
0.7565,0.0244141,
0.757,0.0157166,
0.7575,0.0123596,
0.758,0.0126648,
0.7585,0.0100708,
0.759,0.00717163,
0.7595,0.00137329,
0.76,-0.0038147,
0.7605,-0.00701904,
0.761,-0.0088501,
0.7615,-0.0132751,
0.762,-0.0151062,
0.7625,-0.0138855,
0.763,-0.0100708,
0.7635,-0.00900269,
0.764,-0.0109863,
0.7645,-0.0112915,
0.765,-0.0106812,
0.7655,-0.00869751,
0.766,-0.00640869,
0.7665,-0.00259399,
0.767,-0.00106812,
0.7675,0.00320435,
0.768,0.00869751,
0.7685,0.0108337,
0.769,0.0109863,
0.7695,0.0100708,
0.77,0.0137329,
0.7705,0.0134277,
0.771,0.00747681,
0.7715,0.00289917,
0.772,0.00167847,
0.7725,-0.000305176,
0.773,-0.00411987,
0.7735,-0.00701904,
0.774,-0.00732422,
0.7745,-0.00473022,
0.775,-0.00213623,
0.7755,-0.00259399,
0.776,-0.00274658,
0.7765,-0.000305176,
0.777,-0.00198364,
0.7775,-0.00442505,
0.778,-0.00366211,
0.7785,-0.00167847,
0.779,-0.00289917,
0.7795,-0.00488281,
0.78,-0.00778198,
0.7805,-0.0112915,
0.781,-0.0112915,
0.7815,-0.0120544,
0.782,-0.00961304,
0.7825,-0.00946045,
0.783,-0.00701904,
0.7835,-0.00595093,
0.784,-0.00518799,
0.7845,-0.0038147,
0.785,-0.00320435,
0.7855,-0.00442505,
0.786,-0.00183105,
0.7865,0.00259399,
0.787,0.00717163,
0.7875,0.0134277,
0.788,0.0137329,
0.7885,0.0115967,
0.789,0.0141907,
0.7895,0.015564,
0.79,0.01297,
0.7905,0.00991821,
0.791,0.0106812,
0.7915,0.0114441,
0.792,0.0115967,
0.7925,0.0112915,
0.793,0.01297,
0.7935,0.0137329,
0.794,0.0149536,
0.7945,0.0119019,
0.795,0.00167847,
0.7955,-0.00732422,
0.796,-0.00976563,
0.7965,-0.0106812,
0.797,-0.0108337,
0.7975,-0.0114441,
0.798,-0.00640869,
0.7985,-0.000915527,
0.799,-0.000762939,
0.7995,-0.00579834,
0.8,-0.00900269,
0.8005,-0.00701904,
0.801,-0.0062561,
0.8015,-0.00793457,
0.802,-0.0112915,
0.8025,-0.0108337,
0.803,-0.0088501,
0.8035,-0.00671387,
0.804,-0.00717163,
0.8045,-0.00686646,
0.805,-0.0088501,
0.8055,-0.00518799,
0.806,-0.0038147,
0.8065,-0.00335693,
0.807,-0.00305176,
0.8075,-0.00228882,
0.808,-0.00427246,
0.8085,-0.00534058,
0.809,-0.00610352,
0.8095,-0.0106812,
0.81,-0.0125122,
0.8105,-0.0112915,
0.811,-0.0112915,
0.8115,-0.0120544,
0.812,-0.0128174,
0.8125,-0.0126648,
0.813,-0.0119019,
0.8135,-0.0135803,
0.814,-0.0120544,
0.8145,-0.0128174,
0.815,-0.0143433,
0.8155,-0.0154114,
0.816,-0.0169373,
0.8165,-0.0178528,
0.817,-0.0161743,
0.8175,-0.0134277,
0.818,-0.00991821,
0.8185,-0.00854492,
0.819,-0.00793457,
0.8195,-0.00488281,
0.82,-0.00350952,
0.8205,-0.00473022,
0.821,-0.0038147,
0.8215,-0.00320435,
0.822,0.000915527,
0.8225,0.00793457,
0.823,0.0123596,
0.8235,0.0137329,
0.824,0.0158691,
0.8245,0.0177002,
0.825,0.0164795,
0.8255,0.01297,
0.826,0.010376,
0.8265,0.00732422,
0.827,0.00335693,
0.8275,-0.00137329,
0.828,-0.00244141,
0.8285,0.000152588,
0.829,0.00274658,
0.8295,0.00320435,
0.83,-0.000762939,
0.8305,-0.00137329,
0.831,-0.00106812,
0.8315,-0.00213623,
0.832,0.000152588,
0.8325,0.00137329,
0.833,0.00152588,
0.8335,0.00183105,
0.834,0.00137329,
0.8345,-0.00167847,
0.835,-0.00320435,
0.8355,-0.00564575,
0.836,-0.0102234,
0.8365,-0.0128174,
0.837,-0.0141907,
0.8375,-0.0132751,
0.838,-0.00991821,
0.8385,-0.00701904,
0.839,-0.00747681,
0.8395,-0.00442505,
0.84,-0.00183105,
0.8405,-0.000610352,
0.841,0.00244141,
0.8415,0.0038147,
0.842,0.00244141,
0.8425,0.00183105,
0.843,-0.000457764,
0.8435,-0.00427246,
0.844,-0.00869751,
0.8445,-0.00991821,
0.845,-0.00701904,
0.8455,-0.00442505,
0.846,-0.00488281,
0.8465,-0.00671387,
0.847,-0.00305176,
0.8475,-0.0012207,
0.848,-0.000610352,
0.8485,0.00259399,
0.849,0.00411987,
0.8495,0.00610352,
0.85,0.0112915,
0.8505,0.0134277,
0.851,0.0135803,
0.8515,0.0141907,
0.852,0.017395,
0.8525,0.0205994,
0.853,0.0239563,
0.8535,0.0228882,
0.854,0.0151062,
0.8545,0.00579834,
0.855,0.00183105,
0.8555,-0.00213623,
0.856,-0.00839233,
0.8565,-0.0149536,
0.857,-0.0164795,
0.8575,-0.020752,
0.858,-0.025177,
0.8585,-0.0257874,
0.859,-0.0257874,
0.8595,-0.0248718,
0.86,-0.0216675,
0.8605,-0.0178528,
0.861,-0.0160217,
0.8615,-0.015564,
0.862,-0.0160217,
0.8625,-0.0187683,
0.863,-0.0201416,
0.8635,-0.0169373,
0.864,-0.0160217,
0.8645,-0.0170898,
0.865,-0.0177002,
0.8655,-0.0164795,
0.866,-0.0169373,
0.8665,-0.0146484,
0.867,-0.0131226,
0.8675,-0.0111389,
0.868,-0.0105286,
0.8685,-0.00869751,
0.869,-0.00457764,
0.8695,0.00152588,
0.87,0.00900269,
0.8705,0.0177002,
0.871,0.0204468,
0.8715,0.020752,
0.872,0.0190735,
0.8725,0.0135803,
0.873,0.00656128,
0.8735,0.00167847,
0.874,0.0050354,
0.8745,0.010376,
0.875,0.00793457,
0.8755,0.00396729,
0.876,0.00320435,
0.8765,0.00228882,
0.877,0.00152588,
0.8775,0.00183105,
0.878,0.00198364,
0.8785,0.00259399,
0.879,0.000457764,
0.8795,-0.00198364,
0.88,-0.00137329,
0.8805,0.000305176,
0.881,-0.00198364,
0.8815,-0.00259399,
0.882,-0.00152588,
0.8825,0.0012207,
0.883,0.00442505,
0.8835,0.00640869,
0.884,0.00961304,
0.8845,0.0114441,
0.885,0.0134277,
0.8855,0.0167847,
0.886,0.0178528,
0.8865,0.0149536,
0.887,0.0141907,
0.8875,0.0135803,
0.888,0.0119019,
0.8885,0.00946045,
0.889,0.00595093,
0.8895,0.00610352,
0.89,0.00823975,
0.8905,0.00854492,
0.891,0.00869751,
0.8915,0.00854492,
0.892,0.00778198,
0.8925,0.00961304,
0.893,0.00961304,
0.8935,0.00915527,
0.894,0.0108337,
0.8945,0.00961304,
0.895,0.00686646,
0.8955,0.00350952,
0.896,0.00137329,
0.8965,-0.00350952,
0.897,-0.00701904,
0.8975,-0.00778198,
0.898,-0.0062561,
0.8985,-0.00457764,
0.899,-0.0050354,
0.8995,-0.00518799,
0.9,-0.00350952,
0.9005,-0.000152588,
0.901,0.00137329,
0.9015,0.00320435,
0.902,0.00549316,
0.9025,0.0050354,
0.903,0.00595093,
0.9035,0.00640869,
0.904,0.00854492,
0.9045,0.0115967,
0.905,0.0105286,
0.9055,0.00976563,
0.906,0.0149536,
0.9065,0.0256348,
0.907,0.0312805,
0.9075,0.032959,
0.908,0.0294495,
0.9085,0.0256348,
0.909,0.025177,
0.9095,0.0221252,
0.91,0.0178528,
0.9105,0.0134277,
0.911,0.0117493,
0.9115,0.0137329,
0.912,0.0205994,
0.9125,0.0254822,
0.913,0.0201416,
0.9135,0.00732422,
0.914,-0.00579834,
0.9145,-0.0146484,
0.915,-0.0180054,
0.9155,-0.0213623,
0.916,-0.0219727,
0.9165,-0.0166321,
0.917,-0.015564,
0.9175,-0.0161743,
0.918,-0.0205994,
0.9185,-0.0238037,
0.919,-0.0233459,
0.9195,-0.0218201,
0.92,-0.0242615,
0.9205,-0.0300598,
0.921,-0.032196,
0.9215,-0.0360107,
0.922,-0.0392151,
0.9225,-0.0416565,
0.923,-0.0463867,
0.9235,-0.0549316,
0.924,-0.0561523,
0.9245,-0.0535583,
0.925,-0.0515747,
0.9255,-0.0535583,
0.926,-0.0592041,
0.9265,-0.0610352,
0.927,-0.0588989,
0.9275,-0.0584412,
0.928,-0.0549316,
0.9285,-0.0439453,
0.929,-0.0300598,
0.9295,-0.014801,
0.93,0.00717163,
0.9305,0.035553,
0.931,0.0654602,
0.9315,0.0854492,
0.932,0.0813293,
0.9325,0.0379944,
0.933,-0.0102234,
0.9335,-0.0363159,
0.934,-0.0450134,
0.9345,-0.0422668,
0.935,-0.0469971,
0.9355,-0.0714111,
0.936,-0.0897217,
0.9365,-0.0860596,
0.937,-0.0697327,
0.9375,-0.0578308,
0.938,-0.0468445,
0.9385,-0.0285339,
0.939,-0.0115967,
0.9395,0.00167847,
0.94,0.0250244,
0.9405,0.0776672,
0.941,0.146027,
0.9415,0.178986,
0.942,0.168762,
0.9425,0.13916,
0.943,0.101013,
0.9435,0.071106,
0.944,0.0552368,
0.9445,0.0349426,
0.945,0.0128174,
0.9455,-0.00640869,
0.946,-0.0239563,
0.9465,-0.0480652,
0.947,-0.0686646,
0.9475,-0.0523376,
0.948,0.0088501,
0.9485,0.0759888,
0.949,0.103607,
0.9495,0.102844,
0.95,0.0828552,
0.9505,0.0344849,
0.951,-0.0239563,
0.9515,-0.0538635,
0.952,-0.0564575,
0.9525,-0.0497437,
0.953,-0.0369263,
0.9535,-0.0218201,
0.954,-0.0105286,
0.9545,-0.00854492,
0.955,-0.0109863,
0.9555,-0.0128174,
0.956,-0.0114441,
0.9565,-0.00900269,
0.957,-0.00808716,
0.9575,-0.0062561,
0.958,-0.00305176,
0.9585,-0.00305176,
0.959,-0.0050354,
0.9595,-0.00717163,
0.96,-0.00900269,
0.9605,-0.00839233,
0.961,-0.00396729,
0.9615,-0.00457764,
0.962,-0.00671387,
0.9625,-0.00427246,
0.963,-0.00183105,
0.9635,0.000762939,
0.964,0.00305176,
0.9645,0.00274658,
0.965,0.00549316,
0.9655,0.00976563,
0.966,0.0167847,
0.9665,0.0244141,
0.967,0.0256348,
0.9675,0.0210571,
0.968,0.0177002,
0.9685,0.0161743,
0.969,0.0146484,
0.9695,0.014801,
0.97,0.0187683,
0.9705,0.0187683,
0.971,0.0170898,
0.9715,0.0175476,
0.972,0.0152588,
0.9725,0.0149536,
0.973,0.0166321,
0.9735,0.0151062,
0.974,0.0137329,
0.9745,0.0100708,
0.975,0.00427246,
0.9755,0,
0.976,-0.00442505,
0.9765,-0.00793457,
0.977,-0.0164795,
0.9775,-0.022583,
0.978,-0.0236511,
0.9785,-0.025177,
0.979,-0.0305176,
0.9795,-0.037384,
0.98,-0.0430298,
0.9805,-0.0456238,
0.981,-0.045929,
0.9815,-0.0469971,
0.982,-0.0488281,
0.9825,-0.0505066,
0.983,-0.0569153,
0.9835,-0.0637817,
0.984,-0.0694275,
0.9845,-0.0706482,
0.985,-0.0665283,
0.9855,-0.0617981,
0.986,-0.0627136,
0.9865,-0.0604248,
0.987,-0.058136,
0.9875,-0.057373,
0.988,-0.0535583,
0.9885,-0.0523376,
0.989,-0.0521851,
0.9895,-0.0517273,
0.99,-0.0482178,
0.9905,-0.042572,
0.991,-0.0366211,
0.9915,-0.0320435,
0.992,-0.0306702,
0.9925,-0.0299072,
0.993,-0.0268555,
0.9935,-0.0242615,
0.994,-0.0263977,
0.9945,-0.0273132,
0.995,-0.0257874,
0.9955,-0.0234985,
0.996,-0.020752,
0.9965,-0.014801,
0.997,-0.0149536,
0.9975,-0.0157166,
0.998,-0.0212097,
0.9985,-0.0283813,
0.999,-0.0289917,
0.9995,-0.0187683,
1,-0.000305176,
1.0005,0.00823975,
1.001,0.00595093,
1.0015,0.00213623,
1.002,0.00396729,
1.0025,0.00595093,
1.003,0.00427246,
1.0035,0.0012207,
1.004,-0.000457764,
1.0045,-0.00350952,
1.005,-0.01297,
1.0055,-0.018158,
1.006,-0.0146484,
1.0065,-0.00717163,
1.007,-0.00320435,
1.0075,0.00183105,
1.008,0.00518799,
1.0085,0.00640869,
1.009,0.00778198,
1.0095,0.00335693,
1.01,-0.00137329,
1.0105,-0.00396729,
1.011,-0.000762939,
1.0115,0.00289917,
1.012,0.00564575,
1.0125,0.00946045,
1.013,0.0111389,
1.0135,0.0134277,
1.014,0.0224304,
1.0145,0.0527954,
1.015,0.0791931,
1.0155,0.0634766,
1.016,0.032196,
1.0165,0.00686646,
1.017,-0.00442505,
1.0175,-0.0038147,
1.018,-0.00701904,
1.0185,-0.0138855,
1.019,-0.0157166,
1.0195,-0.0154114,
1.02,-0.0125122,
1.0205,-0.0106812,
1.021,-0.00534058,
1.0215,0.00167847,
1.022,0.00839233,
1.0225,0.0112915,
1.023,0.00320435,
1.0235,-0.0158691,
1.024,-0.0286865,
1.0245,-0.0360107,
1.025,-0.0424194,
1.0255,-0.0489807,
1.026,-0.04776,
1.0265,-0.0404358,
1.027,-0.0300598,
1.0275,-0.00839233,
1.028,0.0314331,
1.0285,0.0752258,
1.029,0.0869751,
1.0295,0.0674438,
1.03,0.0450134,
1.0305,0.0341797,
1.031,0.0285339,
1.0315,0.0201416,
1.032,0.014801,
1.0325,0.0198364,
1.033,0.020752,
1.0335,0.018158,
1.034,0.0187683,
1.0345,0.0254822,
1.035,0.0288391,
1.0355,0.0270081,
1.036,0.0210571,
1.0365,0.0154114,
1.037,0.00473022,
1.0375,-0.0115967,
1.038,-0.0236511,
1.0385,-0.0344849,
1.039,-0.0456238,
1.0395,-0.0567627,
1.04,-0.057373,
1.0405,-0.0376892,
1.041,-0.00732422,
1.0415,0.0216675,
1.042,0.0497437,
1.0425,0.0726318,
1.043,0.0830078,
1.0435,0.0785828,
1.044,0.0662231,
1.0445,0.0584412,
1.045,0.04776,
1.0455,0.0308228,
1.046,0.0163269,
1.0465,0.00549316,
1.047,-0.0177002,
1.0475,-0.0595093,
1.048,-0.0964355,
1.0485,-0.102844,
1.049,-0.0935364,
1.0495,-0.092926,
1.05,-0.0956726,
1.0505,-0.0886536,
1.051,-0.0737,
1.0515,-0.059967,
1.052,-0.0521851,
1.0525,-0.0354004,
1.053,0.00411987,
1.0535,0.0598145,
1.054,0.0909424,
1.0545,0.0888062,
1.055,0.0761414,
1.0555,0.0570679,
1.056,0.022583,
1.0565,-0.00915527,
1.057,-0.020752,
1.0575,-0.012207,
1.058,0.0062561,
1.0585,0.0233459,
1.059,0.0253296,
1.0595,0.0158691,
1.06,0.00518799,
1.0605,0.0120544,
1.061,0.0444031,
1.0615,0.0839233,
1.062,0.0909424,
1.0625,0.0662231,
1.063,0.0361633,
1.0635,0.0160217,
1.064,0.00701904,
1.0645,0.00793457,
1.065,0.0120544,
1.0655,0.0135803,
1.066,0.00427246,
1.0665,-0.00289917,
1.067,-0.00305176,
1.0675,0.00305176,
1.068,0.00335693,
1.0685,-0.00335693,
1.069,-0.0137329,
1.0695,-0.0241089,
1.07,-0.0314331,
1.0705,-0.039978,
1.071,-0.0375366,
1.0715,-0.0135803,
1.072,-0.00854492,
1.0725,-0.0230408,
1.073,-0.0109863,
1.0735,0.0537109,
1.074,0.126953,
1.0745,0.139618,
1.075,0.0814819,
1.0755,0.0108337,
1.076,-0.035553,
1.0765,-0.0509644,
1.077,-0.0520325,
1.0775,-0.0654602,
1.078,-0.0813293,
1.0785,-0.0827026,
1.079,-0.0694275,
1.0795,-0.050354,
1.08,-0.0331116,
1.0805,-0.00259399,
1.081,0.0415039,
1.0815,0.0619507,
1.082,0.0576782,
1.0825,0.0569153,
1.083,0.0810242,
1.0835,0.120087,
1.084,0.13855,
1.0845,0.109406,
1.085,0.0483704,
1.0855,-0.0224304,
1.086,-0.102844,
1.0865,-0.168915,
1.087,-0.193176,
1.0875,-0.20401,
1.088,-0.199738,
1.0885,-0.188141,
1.089,-0.193787,
1.0895,-0.208282,
1.09,-0.197449,
1.0905,-0.142365,
1.091,-0.0695801,
1.0915,-0.00457764,
1.092,0.0546265,
1.0925,0.116425,
1.093,0.168915,
1.0935,0.179138,
1.094,0.136566,
1.0945,0.10498,
1.095,0.135803,
1.0955,0.172577,
1.096,0.122223,
1.0965,0.0114441,
1.097,-0.0764465,
1.0975,-0.119781,
1.098,-0.13382,
1.0985,-0.12558,
1.099,-0.0865173,
1.0995,-0.00518799,
1.1,0.100555,
1.1005,0.151825,
1.101,0.12619,
1.1015,0.0917053,
1.102,0.0996399,
1.1025,0.12558,
1.103,0.107574,
1.1035,0.0660706,
1.104,0.0473022,
1.1045,0.0401306,
1.105,0.0268555,
1.1055,0.0158691,
1.106,0.012207,
1.1065,0.0134277,
1.107,0.0172424,
1.1075,0.0213623,
1.108,0.0196838,
1.1085,0.0160217,
1.109,0.0138855,
1.1095,0.0117493,
1.11,0.00518799,
1.1105,0.00442505,
1.111,0.0108337,
1.1115,0.017395,
1.112,0.0250244,
1.1125,0.0270081,
1.113,0.0201416,
1.1135,0.0117493,
1.114,0.00595093,
1.1145,0.00106812,
1.115,-0.00228882,
1.1155,-0.00671387,
1.116,-0.00854492,
1.1165,-0.0120544,
1.117,-0.018158,
1.1175,-0.0230408,
1.118,-0.0222778,
1.1185,-0.0238037,
1.119,-0.0231934,
1.1195,-0.0189209,
1.12,-0.0131226,
1.1205,-0.00778198,
1.121,-0.00457764,
1.1215,-0.00274658,
1.122,0.00289917,
1.1225,0.00259399,
1.123,0.00442505,
1.1235,0.0111389,
1.124,0.0050354,
1.1245,-0.0149536,
1.125,-0.0357056,
1.1255,-0.0444031,
1.126,-0.040741,
1.1265,-0.0386047,
1.127,-0.0392151,
1.1275,-0.0389099,
1.128,-0.0344849,
1.1285,-0.0306702,
1.129,-0.0315857,
1.1295,-0.0325012,
1.13,-0.032196,
1.1305,-0.0300598,
1.131,-0.0328064,
1.1315,-0.0332642,
1.132,-0.0300598,
1.1325,-0.0198364,
1.133,-0.00900269,
1.1335,0.00167847,
1.134,0.00686646,
1.1345,0.00518799,
1.135,0.00152588,
1.1355,-0.00778198,
1.136,-0.0114441,
1.1365,-0.000457764,
1.137,0.0050354,
1.1375,-0.00564575,
1.138,-0.0210571,
1.1385,-0.0279236,
1.139,-0.0268555,
1.1395,-0.0262451,
1.14,-0.0280762,
1.1405,-0.0227356,
1.141,-0.0151062,
1.1415,-0.0151062,
1.142,-0.0193787,
1.1425,-0.0184631,
1.143,-0.0115967,
1.1435,-0.00564575,
1.144,-0.00335693,
1.1445,0.000762939,
1.145,-0.00213623,
1.1455,-0.010376,
1.146,-0.0212097,
1.1465,-0.0309753,
1.147,-0.0343323,
1.1475,-0.0332642,
1.148,-0.0296021,
1.1485,-0.0257874,
1.149,-0.0193787,
1.1495,-0.0196838,
1.15,-0.0190735,
1.1505,0.00427246,
1.151,0.0450134,
1.1515,0.0645447,
1.152,0.0460815,
1.1525,0.0221252,
1.153,0.0137329,
1.1535,0.0149536,
1.154,0.0178528,
1.1545,0.0198364,
1.155,0.0183105,
1.1555,0.0204468,
1.156,0.0279236,
1.1565,0.0370789,
1.157,0.0416565,
1.1575,0.0442505,
1.158,0.0430298,
1.1585,0.0393677,
1.159,0.0308228,
1.1595,0.0169373,
1.16,-0.0105286,
1.1605,-0.042572,
1.161,-0.067749,
1.1615,-0.0822449,
1.162,-0.0892639,
1.1625,-0.0967407,
1.163,-0.106049,
1.1635,-0.104675,
1.164,-0.0688171,
1.1645,0.0279236,
1.165,0.145111,
1.1655,0.17807,
1.166,0.137939,
1.1665,0.088501,
1.167,0.0552368,
1.1675,0.0309753,
1.168,0.012207,
1.1685,0.00793457,
1.169,0.0143433,
1.1695,0.0175476,
1.17,0.0172424,
1.1705,0.0167847,
1.171,0.0177002,
1.1715,0.0175476,
1.172,0.0209045,
1.1725,0.0196838,
1.173,0.0170898,
1.1735,0.0151062,
1.174,0.0146484,
1.1745,0.00534058,
1.175,-0.00686646,
1.1755,-0.0227356,
1.176,-0.0416565,
1.1765,-0.0523376,
1.177,-0.0512695,
1.1775,-0.0471497,
1.178,-0.0450134,
1.1785,-0.0408936,
1.179,-0.0331116,
1.1795,-0.0236511,
1.18,-0.0140381,
1.1805,-0.0062561,
1.181,0.012207,
1.1815,0.0450134,
1.182,0.0660706,
1.1825,0.0575256,
1.183,0.03479,
1.1835,0.00915527,
1.184,-0.0210571,
1.1845,-0.0546265,
1.185,-0.0708008,
1.1855,-0.068512,
1.186,-0.057373,
1.1865,-0.0473022,
1.187,-0.0491333,
1.1875,-0.058136,
1.188,-0.0682068,
1.1885,-0.0796509,
1.189,-0.0991821,
1.1895,-0.118561,
1.19,-0.107117,
1.1905,-0.0549316,
1.191,0.043335,
1.1915,0.17746,
1.192,0.281372,
1.1925,0.24826,
1.193,0.109253,
1.1935,0.00839233,
1.194,-0.0119019,
1.1945,-0.00869751,
1.195,-0.015564,
1.1955,-0.0202942,
1.196,-0.0157166,
1.1965,-0.00854492,
1.197,-0.00427246,
1.1975,0.000305176,
1.198,0.00457764,
1.1985,0.00442505,
1.199,0.00244141,
1.1995,-0.000152588,
1.2,-0.00259399,
1.2005,-0.00427246,
1.201,-0.00198364,
1.2015,0.00320435,
1.202,0.00213623,
1.2025,-0.00167847,
1.203,-0.00564575,
1.2035,-0.00396729,
1.204,0.00106812,
1.2045,0.00274658,
1.205,-0.00289917,
1.2055,-0.00640869,
1.206,-0.00854492,
1.2065,-0.0111389,
1.207,-0.0108337,
1.2075,-0.00961304,
1.208,-0.0117493,
1.2085,-0.0138855,
1.209,-0.0154114,
1.2095,-0.0138855,
1.21,-0.0126648,
1.2105,-0.0112915,
1.211,-0.0088501,
1.2115,-0.00671387,
1.212,-0.00656128,
1.2125,-0.00793457,
1.213,-0.0106812,
1.2135,-0.00869751,
1.214,-0.0012207,
1.2145,0.00411987,
1.215,0.00946045,
1.2155,0.0108337,
1.216,0.0088501,
1.2165,0.0125122,
1.217,0.019989,
1.2175,0.0268555,
1.218,0.0227356,
1.2185,0.0117493,
1.219,0.00335693,
1.2195,-0.00457764,
1.22,-0.00839233,
1.2205,-0.00488281,
1.221,0.00152588,
1.2215,0.00793457,
1.222,0.00717163,
1.2225,0.00228882,
1.223,0.00366211,
1.2235,0.00976563,
1.224,0.00961304,
1.2245,0.00396729,
1.225,-0.000915527,
1.2255,-0.000610352,
1.226,0.00595093,
1.2265,0.0125122,
1.227,0.0184631,
1.2275,0.0219727,
1.228,0.0193787,
1.2285,0.0117493,
1.229,0.00289917,
1.2295,-0.0038147,
1.23,-0.00900269,
1.2305,-0.01297,
1.231,-0.00976563,
1.2315,-0.00366211,
1.232,0,
1.2325,-0.000762939,
1.233,-0.00534058,
1.2335,-0.00656128,
1.234,-0.00808716,
1.2345,-0.0114441,
1.235,-0.0131226,
1.2355,-0.0158691,
1.236,-0.0125122,
1.2365,-0.00808716,
1.237,-0.00656128,
1.2375,-0.00198364,
1.238,-0.0012207,
1.2385,-0.00442505,
1.239,-0.00762939,
1.2395,-0.0112915,
1.24,-0.0117493,
1.2405,-0.00686646,
1.241,-0.00610352,
1.2415,-0.0088501,
1.242,-0.0105286,
1.2425,-0.012207,
1.243,-0.0141907,
1.2435,-0.0120544,
1.244,-0.0105286,
1.2445,-0.00869751,
1.245,-0.00488281,
1.2455,-0.00198364,
1.246,-0.00106812,
1.2465,-0.00228882,
1.247,-0.00320435,
1.2475,-0.00335693,
1.248,-0.00488281,
1.2485,-0.00701904,
1.249,-0.00854492,
1.2495,-0.0100708,
1.25,-0.010376,
1.2505,-0.00961304,
1.251,-0.012207,
1.2515,-0.0193787,
1.252,-0.0215149,
1.2525,-0.0163269,
1.253,-0.0117493,
1.2535,-0.00762939,
1.254,-0.00442505,
1.2545,-0.00518799,
1.255,-0.00854492,
1.2555,-0.00854492,
1.256,-0.00686646,
1.2565,-0.00961304,
1.257,-0.0134277,
1.2575,-0.0132751,
1.258,-0.0115967,
1.2585,-0.0119019,
1.259,-0.00915527,
1.2595,-0.00671387,
1.26,-0.00427246,
1.2605,-0.00335693,
1.261,-0.000305176,
1.2615,0.00137329,
1.262,0.0050354,
1.2625,0.00793457,
1.263,0.00854492,
1.2635,0.00579834,
1.264,0.00549316,
1.2645,-0.000915527,
1.265,-0.00961304,
1.2655,-0.0134277,
1.266,-0.012207,
1.2665,-0.0125122,
1.267,-0.0151062,
1.2675,-0.0186157,
1.268,-0.0219727,
1.2685,-0.0241089,
1.269,-0.0268555,
1.2695,-0.0296021,
1.27,-0.0331116,
1.2705,-0.0326538,
1.271,-0.0291443,
1.2715,-0.0254822,
1.272,-0.0265503,
1.2725,-0.0274658,
1.273,-0.0265503,
1.2735,-0.0213623,
1.274,-0.0158691,
1.2745,-0.0151062,
1.275,-0.0149536,
1.2755,-0.0126648,
1.276,-0.0161743,
1.2765,-0.0190735,
1.277,-0.0163269,
1.2775,-0.0131226,
1.278,-0.0144958,
1.2785,-0.0164795,
1.279,-0.0164795,
1.2795,-0.0152588,
1.28,-0.0135803,
1.2805,-0.010376,
1.281,-0.0120544,
1.2815,-0.0163269,
1.282,-0.020752,
1.2825,-0.0230408,
1.283,-0.0239563,
1.2835,-0.0210571,
1.284,-0.014801,
1.2845,-0.00564575,
1.285,0.000457764,
1.2855,0.00289917,
1.286,0.00335693,
1.2865,0.0012207,
1.287,0.00106812,
1.2875,0.00198364,
1.288,0.00534058,
1.2885,0.00762939,
1.289,0.0062561,
1.2895,-0.000457764,
1.29,-0.00610352,
1.2905,-0.00961304,
1.291,-0.0106812,
1.2915,-0.0115967,
1.292,-0.00946045,
1.2925,-0.00534058,
1.293,-0.0038147,
1.2935,-0.00320435,
1.294,-0.0012207,
1.2945,0.000457764,
1.295,0,
1.2955,0.000915527,
1.296,0.0012207,
1.2965,-0.0012207,
1.297,0.000762939,
1.2975,0.00488281,
1.298,0.00686646,
1.2985,0.00305176,
1.299,-0.00228882,
1.2995,-0.0012207,
1.3,0.00350952,
1.3005,0.00457764,
1.301,0.00671387,
1.3015,0.00549316,
1.302,0.00411987,
1.3025,0.00228882,
1.303,0.000610352,
1.3035,0.00427246,
1.304,0.00793457,
1.3045,0.00854492,
1.305,0.00549316,
1.3055,0.00213623,
1.306,-0.00198364,
1.3065,-0.00823975,
1.307,-0.0119019,
1.3075,-0.0141907,
1.308,-0.0143433,
1.3085,-0.00640869,
1.309,0.00610352,
1.3095,0.01297,
1.31,0.00869751,
1.3105,0,
1.311,-0.00900269,
1.3115,-0.0135803,
1.312,-0.0132751,
1.3125,-0.0100708,
1.313,-0.00656128,
1.3135,-0.00198364,
1.314,0.0038147,
1.3145,0.00701904,
1.315,0.0038147,
1.3155,0.00228882,
1.316,0.00411987,
1.3165,0.00473022,
1.317,0.00549316,
1.3175,0.00564575,
1.318,0.012207,
1.3185,0.015564,
1.319,0.0178528,
1.3195,0.0170898,
1.32,0.0164795,
1.3205,0.0158691,
1.321,0.0105286,
1.3215,0.00259399,
1.322,-0.00366211,
1.3225,-0.00595093,
1.323,-0.00930786,
1.3235,-0.0125122,
1.324,-0.00473022,
1.3245,0.00640869,
1.325,0.0102234,
1.3255,0.00976563,
1.326,0.0123596,
1.3265,0.0163269,
1.327,0.0164795,
1.3275,0.0146484,
1.328,0.0106812,
1.3285,0.00747681,
1.329,0.00473022,
1.3295,0.00106812,
1.33,-0.000762939,
1.3305,-0.0012207,
1.331,-0.00305176,
1.3315,-0.00457764,
1.332,-0.00411987,
1.3325,-0.00350952,
1.333,-0.00167847,
1.3335,-0.000610352,
1.334,0.00259399,
1.3345,0.00350952,
1.335,0.000152588,
1.3355,-0.00366211,
1.336,-0.00488281,
1.3365,-0.00411987,
1.337,-0.00350952,
1.3375,-0.00366211,
1.338,-0.00671387,
1.3385,-0.00930786,
1.339,-0.00823975,
1.3395,-0.00671387,
1.34,-0.00595093,
1.3405,-0.0062561,
1.341,-0.00900269,
1.3415,-0.0088501,
1.342,-0.00793457,
1.3425,-0.00473022,
1.343,-0.00228882,
1.3435,0.000610352,
1.344,0.00183105,
1.3445,0.00579834,
1.345,0.0128174,
1.3455,0.0189209,
1.346,0.0202942,
1.3465,0.0180054,
1.347,0.0151062,
1.3475,0.0146484,
1.348,0.0166321,
1.3485,0.0143433,
1.349,0.00854492,
1.3495,0.00183105,
1.35,-0.00152588,
1.3505,0.00213623,
1.351,0.00656128,
1.3515,0.00671387,
1.352,0.00335693,
1.3525,0.00335693,
1.353,0.00106812,
1.3535,0.00289917,
1.354,0.00701904,
1.3545,0.00839233,
1.355,0.00717163,
1.3555,0.00671387,
1.356,0.00778198,
1.3565,0.00427246,
1.357,0.00396729,
1.3575,0.00534058,
1.358,0.00366211,
1.3585,-0.000305176,
1.359,0,
1.3595,-0.0038147,
1.36,-0.00488281,
1.3605,-0.0038147,
1.361,-0.0012207,
1.3615,0.00183105,
1.362,0.000152588,
1.3625,-0.0038147,
1.363,-0.00701904,
1.3635,-0.0112915,
1.364,-0.0143433,
1.3645,-0.0151062,
1.365,-0.0138855,
1.3655,-0.0125122,
1.366,-0.00854492,
1.3665,-0.00808716,
1.367,-0.00915527,
1.3675,-0.00854492,
1.368,-0.00595093,
1.3685,0.000762939,
1.369,0.00442505,
1.3695,0.00518799,
1.37,0.00534058,
1.3705,0.00457764,
1.371,0.00274658,
1.3715,0.00137329,
1.372,-0.00152588,
1.3725,-0.00106812,
1.373,0.000152588,
1.3735,-0.00366211,
1.374,-0.00854492,
1.3745,-0.0117493,
1.375,-0.0141907,
1.3755,-0.0135803,
1.376,-0.0126648,
1.3765,-0.00961304,
1.377,-0.00671387,
1.3775,-0.00518799,
1.378,0.00198364,
1.3785,0.0134277,
1.379,0.0209045,
1.3795,0.0212097,
1.38,0.0180054,
1.3805,0.0177002,
1.381,0.0132751,
1.3815,0.00701904,
1.382,0.00518799,
1.3825,0.00747681,
1.383,0.012207,
1.3835,0.0154114,
1.384,0.0190735,
1.3845,0.0195313,
1.385,0.0222778,
1.3855,0.0233459,
1.386,0.022583,
1.3865,0.0151062,
1.387,0.00839233,
1.3875,0.00183105,
1.388,-0.0038147,
1.3885,-0.00701904,
1.389,-0.00778198,
1.3895,-0.00854492,
1.39,-0.00946045,
1.3905,-0.00854492,
1.391,-0.00534058,
1.3915,-0.00289917,
1.392,-0.000457764,
1.3925,-0.000610352,
1.393,-0.00350952,
1.3935,-0.0038147,
1.394,-0.00595093,
1.3945,-0.0109863,
1.395,-0.0137329,
1.3955,-0.0119019,
1.396,-0.0106812,
1.3965,-0.00991821,
1.397,-0.00610352,
1.3975,-0.00640869,
1.398,-0.0137329,
1.3985,-0.0166321,
1.399,-0.0161743,
1.3995,-0.0157166,
1.4,-0.0154114,
1.4005,-0.0126648,
1.401,-0.0125122,
1.4015,-0.0109863,
1.402,-0.00732422,
1.4025,-0.00274658,
1.403,-0.00198364,
1.4035,-0.00732422,
1.404,-0.0117493,
1.4045,-0.0138855,
1.405,-0.012207,
1.4055,-0.012207,
1.406,-0.0102234,
1.4065,-0.00518799,
1.407,0.00137329,
1.4075,0.00701904,
1.408,0.00946045,
1.4085,0.0163269,
1.409,0.0270081,
1.4095,0.0387573,
1.41,0.0444031,
1.4105,0.0404358,
1.411,0.0299072,
1.4115,0.0167847,
1.412,0.00900269,
1.4125,0.00656128,
1.413,0.000915527,
1.4135,-0.00518799,
1.414,-0.0038147,
1.4145,-0.000305176,
1.415,0.00411987,
1.4155,0.0038147,
1.416,-0.000457764,
1.4165,-0.00289917,
1.417,-0.0038147,
1.4175,-0.00701904,
1.418,-0.01297,
1.4185,-0.0163269,
1.419,-0.0160217,
1.4195,-0.0144958,
1.42,-0.0167847,
1.4205,-0.020752,
1.421,-0.020752,
1.4215,-0.0187683,
1.422,-0.0167847,
1.4225,-0.0190735,
1.423,-0.0219727,
1.4235,-0.0228882,
1.424,-0.0257874,
1.4245,-0.0256348,
1.425,-0.0239563,
1.4255,-0.0231934,
1.426,-0.0230408,
1.4265,-0.0212097,
1.427,-0.0209045,
1.4275,-0.020752,
1.428,-0.0216675,
1.4285,-0.0195313,
1.429,-0.0195313,
1.4295,-0.0180054,
1.43,-0.0132751,
1.4305,-0.00762939,
1.431,-0.00457764,
1.4315,-0.0050354,
1.432,-0.00549316,
1.4325,-0.00488281,
1.433,-0.00656128,
1.4335,-0.00732422,
1.434,-0.00244141,
1.4345,0.00579834,
1.435,0.0149536,
1.4355,0.0196838,
1.436,0.0201416,
1.4365,0.0135803,
1.437,0.00396729,
1.4375,-0.000610352,
1.438,-0.00442505,
1.4385,-0.00762939,
1.439,-0.0111389,
1.4395,-0.0144958,
1.44,-0.017395,
1.4405,-0.0192261,
1.441,-0.018158,
1.4415,-0.0169373,
1.442,-0.0186157,
1.4425,-0.0164795,
1.443,-0.0143433,
1.4435,-0.01297,
1.444,-0.00900269,
1.4445,-0.000915527,
1.445,0.00793457,
1.4455,0.0163269,
1.446,0.0256348,
1.4465,0.0343323,
1.447,0.0349426,
1.4475,0.0267029,
1.448,0.0144958,
1.4485,0.0088501,
1.449,0.0117493,
1.4495,0.0152588,
1.45,0.0172424,
1.4505,0.0146484,
1.451,0.00717163,
1.4515,-0.000457764,
1.452,-0.00549316,
1.4525,-0.0038147,
1.453,0.00183105,
1.4535,0.00701904,
1.454,0.0102234,
1.4545,0.0100708,
1.455,0.000610352,
1.4555,-0.0120544,
1.456,-0.0170898,
1.4565,-0.0201416,
1.457,-0.0248718,
1.4575,-0.0219727,
1.458,-0.0164795,
1.4585,-0.00717163,
1.459,0.00259399,
1.4595,0.00823975,
1.46,0.00701904,
1.4605,0.000305176,
1.461,-0.00366211,
1.4615,-0.000457764,
1.462,0.00457764,
1.4625,0.0062561,
1.463,0.00671387,
1.4635,0.00640869,
1.464,0.00411987,
1.4645,-0.000610352,
1.465,-0.00289917,
1.4655,-0.00366211,
1.466,-0.00473022,
1.4665,-0.00595093,
1.467,-0.00747681,
1.4675,-0.0100708,
1.468,-0.0117493,
1.4685,-0.0126648,
1.469,-0.00961304,
1.4695,-0.00686646,
1.47,-0.00427246,
1.4705,-0.00335693,
1.471,-0.0012207,
1.4715,0.00244141,
1.472,0.00427246,
1.4725,0.00732422,
1.473,0.0106812,
1.4735,0.014801,
1.474,0.0189209,
1.4745,0.0167847,
1.475,0.0088501,
1.4755,-0.00198364,
1.476,-0.0135803,
1.4765,-0.0234985,
1.477,-0.0250244,
1.4775,-0.020752,
1.478,-0.0189209,
1.4785,-0.0196838,
1.479,-0.0201416,
1.4795,-0.018158,
1.48,-0.0151062,
1.4805,-0.0126648,
1.481,-0.00656128,
1.4815,-0.00396729,
1.482,-0.00305176,
1.4825,-0.00183105,
1.483,-0.000915527,
1.4835,-0.000915527,
1.484,0.00167847,
1.4845,0.00991821,
1.485,0.0167847,
1.4855,0.0256348,
1.486,0.0334167,
1.4865,0.0314331,
1.487,0.0234985,
1.4875,0.0215149,
1.488,0.0205994,
1.4885,0.0180054,
1.489,0.0189209,
1.4895,0.0231934,
1.49,0.020752,
1.4905,0.0111389,
1.491,0.00350952,
1.4915,-0.00228882,
1.492,0.000610352,
1.4925,0.0108337,
1.493,0.0143433,
1.4935,0.0062561,
1.494,-0.0088501,
1.4945,-0.0186157,
1.495,-0.0189209,
1.4955,-0.0167847,
1.496,-0.0184631,
1.4965,-0.0227356,
1.497,-0.0257874,
1.4975,-0.0230408,
1.498,-0.0205994,
1.4985,-0.0201416,
1.499,-0.0184631,
1.4995,-0.014801,
1.5,-0.0135803,
1.5005,-0.0163269,
1.501,-0.0178528,
1.5015,-0.018158,
1.502,-0.0178528,
1.5025,-0.0163269,
1.503,-0.0154114,
1.5035,-0.0137329,
1.504,-0.0131226,
1.5045,-0.00946045,
1.505,-0.00717163,
1.5055,-0.00823975,
1.506,-0.0134277,
1.5065,-0.0189209,
1.507,-0.0236511,
1.5075,-0.0268555,
1.508,-0.0288391,
1.5085,-0.0280762,
1.509,-0.0228882,
1.5095,-0.0195313,
1.51,-0.0195313,
1.5105,-0.0189209,
1.511,-0.0202942,
1.5115,-0.0248718,
1.512,-0.0248718,
1.5125,-0.0196838,
1.513,-0.00839233,
1.5135,0.00946045,
1.514,0.0248718,
1.5145,0.030365,
1.515,0.0238037,
1.5155,0.0134277,
1.516,0.00457764,
1.5165,-0.000457764,
1.517,0.00442505,
1.5175,0.014801,
1.518,0.0247192,
1.5185,0.0294495,
1.519,0.0297546,
1.5195,0.0227356,
1.52,0.00808716,
1.5205,-0.00350952,
1.521,-0.00534058,
1.5215,-0.00106812,
1.522,0.00289917,
1.5225,0.00411987,
1.523,0.0062561,
1.5235,0.0106812,
1.524,0.0111389,
1.5245,0.00747681,
1.525,0.00183105,
1.5255,-0.00198364,
1.526,-0.00350952,
1.5265,-0.00823975,
1.527,-0.00778198,
1.5275,-0.00305176,
1.528,0.00198364,
1.5285,0.0038147,
1.529,0.00671387,
1.5295,0.0112915,
1.53,0.01297,
1.5305,0.0108337,
1.531,0.010376,
1.5315,0.00793457,
1.532,0.00442505,
1.5325,0.000915527,
1.533,-0.00198364,
1.5335,-0.00152588,
1.534,0.000915527,
1.5345,0.000915527,
1.535,-0.00411987,
1.5355,-0.0141907,
1.536,-0.0244141,
1.5365,-0.0337219,
1.537,-0.038147,
1.5375,-0.0363159,
1.538,-0.0337219,
1.5385,-0.0317383,
1.539,-0.025177,
1.5395,-0.0175476,
1.54,-0.0088501,
1.5405,-0.00183105,
1.541,-0.00198364,
1.5415,-0.00198364,
1.542,0.00564575,
1.5425,0.0115967,
1.543,0.017395,
1.5435,0.0256348,
1.544,0.0323486,
1.5445,0.0312805,
1.545,0.0256348,
1.5455,0.0262451,
1.546,0.0216675,
1.5465,0.00564575,
1.547,-0.00976563,
1.5475,-0.0115967,
1.548,-0.00732422,
1.5485,0,
1.549,0.00961304,
1.5495,0.0183105,
1.55,0.0213623,
1.5505,0.0138855,
1.551,0.0012207,
1.5515,-0.00289917,
1.552,-0.0038147,
1.5525,-0.00732422,
1.553,-0.015564,
1.5535,-0.0254822,
1.554,-0.0317383,
1.5545,-0.0369263,
1.555,-0.0334167,
1.5555,-0.022583,
1.556,-0.0114441,
1.5565,-0.000762939,
1.557,0.00610352,
1.5575,0.0146484,
1.558,0.0178528,
1.5585,0.0157166,
1.559,0.00473022,
1.5595,-0.000915527,
1.56,0.00640869,
1.5605,0,
1.561,-0.0267029,
1.5615,-0.0524902,
1.562,-0.068512,
1.5625,-0.0770569,
1.563,-0.0819397,
1.5635,-0.0791931,
1.564,-0.0550842,
1.5645,-0.015564,
1.565,0.0114441,
1.5655,0.0219727,
1.566,0.027771,
1.5665,0.0360107,
1.567,0.0502014,
1.5675,0.0570679,
1.568,0.0692749,
1.5685,0.0990295,
1.569,0.0984192,
1.5695,0.0492859,
1.57,0.0038147,
1.5705,-0.0109863,
1.571,-0.00274658,
1.5715,0.0149536,
1.572,0.0344849,
1.5725,0.0521851,
1.573,0.0610352,
1.5735,0.0578308,
1.574,0.0552368,
1.5745,0.06073,
1.575,0.0610352,
1.5755,0.0509644,
1.576,0.0341797,
1.5765,0.0123596,
1.577,-0.00473022,
1.5775,-0.0132751,
1.578,-0.0202942,
1.5785,-0.0250244,
1.579,-0.0213623,
1.5795,-0.0135803,
1.58,-0.00762939,
1.5805,-0.0151062,
1.581,-0.043335,
1.5815,-0.0762939,
1.582,-0.098877,
1.5825,-0.101929,
1.583,-0.101013,
1.5835,-0.108643,
1.584,-0.108337,
1.5845,-0.075531,
1.585,-0.010376,
1.5855,0.0563049,
1.586,0.0743103,
1.5865,0.059967,
1.587,0.0720215,
1.5875,0.0993347,
1.588,0.122528,
1.5885,0.144806,
1.589,0.146179,
1.5895,0.103912,
1.59,0.0495911,
1.5905,0.0202942,
1.591,0.00762939,
1.5915,-0.0050354,
1.592,-0.0219727,
1.5925,-0.0317383,
1.593,-0.0338745,
1.5935,-0.0382996,
1.594,-0.042572,
1.5945,-0.0439453,
1.595,-0.0387573,
1.5955,-0.0299072,
1.596,-0.0263977,
1.5965,-0.0254822,
1.597,-0.0241089,
1.5975,-0.01297,
1.598,-0.00320435,
1.5985,-0.00274658,
1.599,-0.00686646,
1.5995,-0.00183105,
1.6,0.0146484,
1.6005,0.0424194,
1.601,0.0561523,
1.6015,0.035553,
1.602,0.00549316,
1.6025,-0.0114441,
1.603,-0.0227356,
1.6035,-0.0354004,
1.604,-0.0474548,
1.6045,-0.0682068,
1.605,-0.0999451,
1.6055,-0.137939,
1.606,-0.177155,
1.6065,-0.190735,
1.607,-0.153351,
1.6075,-0.0860596,
1.608,-0.0260925,
1.6085,0.0160217,
1.609,0.0346375,
1.6095,0.0180054,
1.61,-0.0337219,
1.6105,-0.0520325,
1.611,-0.0250244,
1.6115,0.00732422,
1.612,0.0125122,
1.6125,0.0132751,
1.613,0.0465393,
1.6135,0.108337,
1.614,0.176239,
1.6145,0.176849,
1.615,0.116577,
1.6155,0.0697327,
1.616,0.0749207,
1.6165,0.0895691,
1.617,0.083313,
1.6175,0.0576782,
1.618,0.0189209,
1.6185,-0.0154114,
1.619,-0.0354004,
1.6195,-0.0444031,
1.62,-0.0448608,
1.6205,-0.0393677,
1.621,-0.0289917,
1.6215,-0.0224304,
1.622,-0.0289917,
1.6225,-0.0466919,
1.623,-0.0520325,
1.6235,-0.0445557,
1.624,-0.0479126,
1.6245,-0.0566101,
1.625,-0.0689697,
1.6255,-0.0857544,
1.626,-0.105743,
1.6265,-0.135193,
1.627,-0.179749,
1.6275,-0.211487,
1.628,-0.237274,
1.6285,-0.279388,
1.629,-0.302429,
1.6295,-0.302429,
1.63,-0.300903,
1.6305,-0.284576,
1.631,-0.19928,
1.6315,0.0131226,
1.632,0.285187,
1.6325,0.388336,
1.633,0.283356,
1.6335,0.155334,
1.634,0.157166,
1.6345,0.271759,
1.635,0.383301,
1.6355,0.377655,
1.636,0.305328,
1.6365,0.22934,
1.637,0.161285,
1.6375,0.0939941,
1.638,0.0233459,
1.6385,-0.0340271,
1.639,-0.106659,
1.6395,-0.188751,
1.64,-0.198669,
1.6405,-0.0965881,
1.641,0.0454712,
1.6415,0.117645,
1.642,0.108948,
1.6425,0.0610352,
1.643,-0.00473022,
1.6435,-0.0465393,
1.644,-0.0486755,
1.6445,-0.0354004,
1.645,-0.00595093,
1.6455,0.0404358,
1.646,0.0657654,
1.6465,0.0701904,
1.647,0.0688171,
1.6475,0.0666809,
1.648,0.0630188,
1.6485,0.0537109,
1.649,0.0444031,
1.6495,0.0402832,
1.65,0.0308228,
1.6505,0.00305176,
1.651,-0.0262451,
1.6515,-0.0476074,
1.652,-0.0709534,
1.6525,-0.0947571,
1.653,-0.124969,
1.6535,-0.153198,
1.654,-0.167694,
1.6545,-0.172729,
1.655,-0.167389,
1.6555,-0.137634,
1.656,-0.112152,
1.6565,-0.0810242,
1.657,-0.0311279,
1.6575,0.0318909,
1.658,0.0802612,
1.6585,0.0746155,
1.659,0.00808716,
1.6595,-0.0634766,
1.66,-0.111542,
1.6605,-0.146942,
1.661,-0.190125,
1.6615,-0.253906,
1.662,-0.326538,
1.6625,-0.37262,
1.663,-0.38208,
1.6635,-0.354004,
1.664,-0.266876,
1.6645,-0.137177,
1.665,-0.0143433,
1.6655,0.0708008,
1.666,0.184784,
1.6665,0.332947,
1.667,0.41275,
1.6675,0.367279,
1.668,0.239563,
1.6685,0.0944519,
1.669,-0.00167847,
1.6695,0.0349426,
1.67,0.192261,
1.6705,0.265656,
1.671,0.16983,
1.6715,0.0531006,
1.672,0.00259399,
1.6725,-0.020752,
1.673,-0.0505066,
1.6735,-0.0796509,
1.674,-0.10437,
1.6745,-0.122681,
1.675,-0.141144,
1.6755,-0.176086,
1.676,-0.187378,
1.6765,-0.151825,
1.677,-0.0912476,
1.6775,-0.0202942,
1.678,0.0332642,
1.6785,0.0442505,
1.679,0.0154114,
1.6795,-0.0140381,
1.68,-0.00991821,
1.6805,0.00854492,
1.681,0.0186157,
1.6815,0.0610352,
1.682,0.128479,
1.6825,0.209656,
1.683,0.289612,
1.6835,0.314636,
1.684,0.268097,
1.6845,0.168915,
1.685,0.0735474,
1.6855,0.0102234,
1.686,-0.0358582,
1.6865,-0.0622559,
1.687,-0.0708008,
1.6875,-0.0691223,
1.688,-0.0137329,
1.6885,0.108948,
1.689,0.197906,
1.6895,0.0985718,
1.69,-0.117645,
1.6905,-0.248413,
1.691,-0.256042,
1.6915,-0.234833,
1.692,-0.251617,
1.6925,-0.269623,
1.693,-0.230865,
1.6935,-0.178986,
1.694,-0.170135,
1.6945,-0.182953,
1.695,-0.174103,
1.6955,-0.126648,
1.696,-0.0289917,
1.6965,0.0782776,
1.697,0.153809,
1.6975,0.156555,
1.698,0.104675,
1.6985,0.0724792,
1.699,0.146179,
1.6995,0.300293,
1.7,0.398712,
1.7005,0.381775,
1.701,0.316162,
1.7015,0.243988,
1.702,0.136261,
1.7025,0.0183105,
1.703,-0.067749,
1.7035,-0.11261,
1.704,-0.130463,
1.7045,-0.117798,
1.705,-0.0735474,
1.7055,-0.00457764,
1.706,0.0776672,
1.7065,0.11673,
1.707,0.0791931,
1.7075,-0.000762939,
1.708,-0.0627136,
1.7085,-0.085907,
1.709,-0.0883484,
1.7095,-0.0613403,
1.71,0.00167847,
1.7105,0.0521851,
1.711,0.0462341,
1.7115,-0.0117493,
1.712,-0.0976563,
1.7125,-0.15213,
1.713,-0.153961,
1.7135,-0.133667,
1.714,-0.153351,
1.7145,-0.180817,
1.715,-0.134735,
1.7155,-0.0460815,
1.716,0.075531,
1.7165,0.278625,
1.717,0.457306,
1.7175,0.454712,
1.718,0.355377,
1.7185,0.284576,
1.719,0.231171,
1.7195,0.153503,
1.72,0.065155,
1.7205,0.00595093,
1.721,-0.0170898,
1.7215,-0.018158,
1.722,-0.00717163,
1.7225,0.00793457,
1.723,0.00793457,
1.7235,0.000457764,
1.724,-0.00457764,
1.7245,-0.0115967,
1.725,-0.0244141,
1.7255,-0.0453186,
1.726,-0.0708008,
1.7265,-0.0868225,
1.727,-0.0964355,
1.7275,-0.106506,
1.728,-0.118866,
1.7285,-0.115509,
1.729,-0.058136,
1.7295,0.00549316,
1.73,-0.0154114,
1.7305,-0.0950623,
1.731,-0.148621,
1.7315,-0.135498,
1.732,-0.0866699,
1.7325,-0.027771,
1.733,0.0183105,
1.7335,0.0305176,
1.734,0.0474548,
1.7345,0.0790405,
1.735,0.0932312,
1.7355,0.0619507,
1.736,-0.00762939,
1.7365,-0.0865173,
1.737,-0.14801,
1.7375,-0.176239,
1.738,-0.200195,
1.7385,-0.261078,
1.739,-0.312195,
1.7395,-0.275574,
1.74,-0.149536,
1.7405,0.0463867,
1.741,0.295105,
1.7415,0.484619,
1.742,0.497894,
1.7425,0.3685,
1.743,0.211029,
1.7435,0.130615,
1.744,0.10376,
1.7445,0.0595093,
1.745,0.00183105,
1.7455,-0.045166,
1.746,-0.0563049,
1.7465,-0.0291443,
1.747,0.0154114,
1.7475,0.0579834,
1.748,0.0798035,
1.7485,0.0636292,
1.749,0.045166,
1.7495,0.0375366,
1.75,0.0337219,
1.7505,0.0401306,
1.751,0.0495911,
1.7515,0.0466919,
1.752,0.0271606,
1.7525,0.00564575,
1.753,-0.0140381,
1.7535,-0.0175476,
1.754,0.00167847,
1.7545,0.0189209,
1.755,0.0149536,
1.7555,-0.0115967,
1.756,-0.0628662,
1.7565,-0.11734,
1.757,-0.159149,
1.7575,-0.187988,
1.758,-0.202789,
1.7585,-0.208588,
1.759,-0.219879,
1.7595,-0.257416,
1.76,-0.280151,
1.7605,-0.230408,
1.761,-0.121613,
1.7615,-0.0109863,
1.762,0.0799561,
1.7625,0.113068,
1.763,0.0712585,
1.7635,0.0198364,
1.764,0.00671387,
1.7645,0.00701904,
1.765,0.00335693,
1.7655,-0.0141907,
1.766,-0.0422668,
1.7665,-0.0912476,
1.767,-0.136414,
1.7675,-0.172424,
1.768,-0.21698,
1.7685,-0.232697,
1.769,-0.130768,
1.7695,0.0428772,
1.77,0.115662,
1.7705,0.0993347,
1.771,0.153351,
1.7715,0.225067,
1.772,0.24231,
1.7725,0.257416,
1.773,0.281372,
1.7735,0.281372,
1.774,0.257568,
1.7745,0.227203,
1.775,0.201111,
1.7755,0.180664,
1.776,0.16571,
1.7765,0.188599,
1.777,0.25116,
1.7775,0.289154,
1.778,0.232697,
1.7785,0.128326,
1.779,0.0596619,
1.7795,0.0256348,
1.78,0.0100708,
1.7805,-0.000762939,
1.781,-0.0166321,
1.7815,-0.0506592,
1.782,-0.0828552,
1.7825,-0.0979614,
1.783,-0.0979614,
1.7835,-0.110016,
1.784,-0.143585,
1.7845,-0.167084,
1.785,-0.160065,
1.7855,-0.15625,
1.786,-0.170441,
1.7865,-0.197754,
1.787,-0.223694,
1.7875,-0.254211,
1.788,-0.290985,
1.7885,-0.325317,
1.789,-0.329742,
1.7895,-0.30014,
1.79,-0.229492,
1.7905,-0.129395,
1.791,0.00564575,
1.7915,0.148315,
1.792,0.240326,
1.7925,0.258942,
1.793,0.220642,
1.7935,0.166473,
1.794,0.149994,
1.7945,0.151062,
1.795,0.115204,
1.7955,0.014801,
1.796,-0.131531,
1.7965,-0.281525,
1.797,-0.355072,
1.7975,-0.270691,
1.798,-0.119629,
1.7985,-0.00808716,
1.799,0.0730896,
1.7995,0.119019,
1.8,0.111847,
1.8005,0.0985718,
1.801,0.0735474,
1.8015,0.0367737,
1.802,0.00946045,
1.8025,0.000457764,
1.803,0.00793457,
1.8035,0.022583,
1.804,0.0289917,
1.8045,0.0132751,
1.805,-0.0480652,
1.8055,-0.114746,
1.806,-0.13382,
1.8065,-0.0984192,
1.807,-0.0196838,
1.8075,0.0619507,
1.808,0.173492,
1.8085,0.366821,
1.809,0.486145,
1.8095,0.445862,
1.81,0.34729,
1.8105,0.237122,
1.811,0.109863,
1.8115,0.00427246,
1.812,-0.0642395,
1.8125,-0.0997925,
1.813,-0.110474,
1.8135,-0.0958252,
1.814,-0.0796509,
1.8145,-0.100098,
1.815,-0.138855,
1.8155,-0.168457,
1.816,-0.185242,
1.8165,-0.222321,
1.817,-0.277863,
1.8175,-0.315704,
1.818,-0.333405,
1.8185,-0.342865,
1.819,-0.360107,
1.8195,-0.397186,
1.82,-0.436249,
1.8205,-0.458679,
1.821,-0.458069,
1.8215,-0.440369,
1.822,-0.346222,
1.8225,-0.195007,
1.823,-0.108337,
1.8235,-0.0628662,
1.824,0.00106812,
1.8245,0.0299072,
1.825,0.0140381,
1.8255,0.070343,
1.826,0.215759,
1.8265,0.344849,
1.827,0.421448,
1.8275,0.483246,
1.828,0.509949,
1.8285,0.466614,
1.829,0.381622,
1.8295,0.278778,
1.83,0.112,
1.8305,-0.101776,
1.831,-0.322418,
1.8315,-0.514374,
1.832,-0.637207,
1.8325,-0.671997,
1.833,-0.630035,
1.8335,-0.464478,
1.834,-0.148621,
1.8345,0.182037,
1.835,0.457001,
1.8355,0.737,
1.836,0.948181,
1.8365,1.02341,
1.837,0.908356,
1.8375,0.595398,
1.838,0.314178,
1.8385,0.188446,
1.839,0.135956,
1.8395,0.0744629,
1.84,-0.00610352,
1.8405,-0.0964355,
1.841,-0.187225,
1.8415,-0.262146,
1.842,-0.309906,
1.8425,-0.293274,
1.843,-0.215454,
1.8435,-0.158539,
1.844,-0.186005,
1.8445,-0.259552,
1.845,-0.309143,
1.8455,-0.346222,
1.846,-0.432129,
1.8465,-0.521393,
1.847,-0.548553,
1.8475,-0.562439,
1.848,-0.55542,
1.8485,-0.461731,
1.849,-0.323334,
1.8495,-0.200806,
1.85,-0.0701904,
1.8505,0.104218,
1.851,0.284424,
1.8515,0.441284,
1.852,0.503845,
1.8525,0.529175,
1.853,0.602112,
1.8535,0.678406,
1.854,0.666199,
1.8545,0.555115,
1.855,0.405579,
1.8555,0.311737,
1.856,0.294037,
1.8565,0.281067,
1.857,0.258026,
1.8575,0.212402,
1.858,0.111542,
1.8585,0.00396729,
1.859,-0.0260925,
1.8595,0.0370789,
1.86,0.0782776,
1.8605,0.0531006,
1.861,0.0512695,
1.8615,0.11322,
1.862,0.218048,
1.8625,0.289001,
1.863,0.252075,
1.8635,0.113678,
1.864,0.0416565,
1.8645,0.0813293,
1.865,0.12146,
1.8655,0.121155,
1.866,0.0312805,
1.8665,-0.174561,
1.867,-0.413055,
1.8675,-0.584106,
1.868,-0.680695,
1.8685,-0.749359,
1.869,-0.762634,
1.8695,-0.632935,
1.87,-0.343475,
1.8705,0.00854492,
1.871,0.408936,
1.8715,0.723724,
1.872,0.702209,
1.8725,0.474396,
1.873,0.298004,
1.8735,0.159454,
1.874,-0.00686646,
1.8745,-0.164795,
1.875,-0.328979,
1.8755,-0.524445,
1.876,-0.746155,
1.8765,-0.952454,
1.877,-1.06949,
1.8775,-1.20041,
1.878,-1.45233,
1.8785,-1.71631,
1.879,-1.88263,
1.8795,-1.97037,
1.88,-1.89484,
1.8805,-1.39008,
1.881,-0.250244,
1.8815,1.28799,
1.882,2.57523,
1.8825,2.97943,
1.883,2.6918,
1.8835,2.28882,
1.884,1.76865,
1.8845,1.07544,
1.885,0.453186,
1.8855,0.0408936,
1.886,-0.271912,
1.8865,-0.558472,
1.887,-0.601044,
1.8875,-0.358887,
1.888,-0.128784,
1.8885,0.0270081,
1.889,0.110931,
1.8895,0.0927734,
1.89,-0.0688171,
1.8905,-0.304108,
1.891,-0.477905,
1.8915,-0.617676,
1.892,-0.693817,
1.8925,-0.64682,
1.893,-0.502472,
1.8935,-0.395508,
1.894,-0.372009,
1.8945,-0.365601,
1.895,-0.167542,
1.8955,0.117493,
1.896,0.133514,
1.8965,-0.0144958,
1.897,0.0370789,
1.8975,0.327148,
1.898,0.527649,
1.8985,0.427094,
1.899,0.215454,
1.8995,0.0715637,
1.9,0.0480652,
1.9005,0.153809,
1.901,0.291443,
1.9015,0.392761,
1.902,0.328369,
1.9025,0.0846863,
1.903,-0.301208,
1.9035,-0.606689,
1.904,-0.624695,
1.9045,-0.461121,
1.905,-0.273285,
1.9055,-0.00274658,
1.906,0.40741,
1.9065,0.64209,
1.907,0.588379,
1.9075,0.583496,
1.908,0.695953,
1.9085,0.675201,
1.909,0.593414,
1.9095,0.630798,
1.91,0.808563,
1.9105,1.01379,
1.911,1.13647,
1.9115,1.25122,
1.912,1.36124,
1.9125,1.35162,
1.913,1.15097,
1.9135,0.888367,
1.914,0.702362,
1.9145,0.580292,
1.915,0.467377,
1.9155,0.346222,
1.916,0.203552,
1.9165,0.0619507,
1.917,-0.052948,
1.9175,-0.134583,
1.918,-0.194855,
1.9185,-0.249023,
1.919,-0.29007,
1.9195,-0.292816,
1.92,-0.278778,
1.9205,-0.289001,
1.921,-0.332184,
1.9215,-0.374603,
1.922,-0.39566,
1.9225,-0.3862,
1.923,-0.2771,
1.9235,-0.153961,
1.924,-0.0857544,
1.9245,-0.136261,
1.925,-0.302124,
1.9255,-0.484467,
1.926,-0.655823,
1.9265,-0.775909,
1.927,-0.820465,
1.9275,-0.873566,
1.928,-0.978546,
1.9285,-1.08368,
1.929,-1.14456,
1.9295,-1.1702,
1.93,-1.13953,
1.9305,-1.02646,
1.931,-0.896759,
1.9315,-0.677185,
1.932,-0.249329,
1.9325,0.268555,
1.933,0.662231,
1.9335,0.829163,
1.934,0.870209,
1.9345,0.911713,
1.935,0.93277,
1.9355,0.908356,
1.936,0.83847,
1.9365,0.692444,
1.937,0.482483,
1.9375,0.297089,
1.938,0.213013,
1.9385,0.214386,
1.939,0.225983,
1.9395,0.182037,
1.94,0.0930786,
1.9405,0.0141907,
1.941,-0.0190735,
1.9415,-0.0268555,
1.942,-0.0396729,
1.9425,-0.0627136,
1.943,-0.0866699,
1.9435,-0.121918,
1.944,-0.168762,
1.9445,-0.210571,
1.945,-0.21698,
1.9455,-0.2034,
1.946,-0.213013,
1.9465,-0.240631,
1.947,-0.242004,
1.9475,-0.243378,
1.948,-0.271759,
1.9485,-0.307159,
1.949,-0.297241,
1.9495,-0.255432,
1.95,-0.228119,
1.9505,-0.234375,
1.951,-0.271454,
1.9515,-0.323181,
1.952,-0.374451,
1.9525,-0.434265,
1.953,-0.518036,
1.9535,-0.610657,
1.954,-0.713501,
1.9545,-0.815735,
1.955,-0.842133,
1.9555,-0.810852,
1.956,-0.74707,
1.9565,-0.716858,
1.957,-0.826721,
1.9575,-0.989532,
1.958,-1.00525,
1.9585,-0.744171,
1.959,-0.371399,
1.9595,-0.151825,
1.96,0.0471497,
1.9605,0.540771,
1.961,1.33102,
1.9615,1.99356,
1.962,2.17636,
1.9625,1.91315,
1.963,1.57471,
1.9635,1.24771,
1.964,0.793762,
1.9645,0.323792,
1.965,0.0230408,
1.9655,-0.10788,
1.966,-0.186005,
1.9665,-0.269928,
1.967,-0.370483,
1.9675,-0.478363,
1.968,-0.573425,
1.9685,-0.600739,
1.969,-0.496216,
1.9695,-0.343781,
1.97,-0.340729,
1.9705,-0.557251,
1.971,-0.819244,
1.9715,-0.96817,
1.972,-0.958862,
1.9725,-0.760956,
1.973,-0.447235,
1.9735,-0.136261,
1.974,0.17395,
1.9745,0.36911,
1.975,0.505524,
1.9755,0.602417,
1.976,0.527191,
1.9765,0.375519,
1.977,0.268097,
1.9775,0.223236,
1.978,0.314484,
1.9785,0.577087,
1.979,0.880585,
1.9795,1.09039,
1.98,1.13632,
1.9805,0.975494,
1.981,0.707397,
1.9815,0.467987,
1.982,0.271301,
1.9825,0.13855,
1.983,0.0935364,
1.9835,0.110474,
1.984,0.155334,
1.9845,0.188446,
1.985,0.114899,
1.9855,-0.0132751,
1.986,-0.042572,
1.9865,0.070343,
1.987,0.17395,
1.9875,0.0546265,
1.988,-0.232544,
1.9885,-0.438538,
1.989,-0.484619,
1.9895,-0.484314,
1.99,-0.523071,
1.9905,-0.501251,
1.991,-0.428162,
1.9915,-0.35202,
1.992,-0.245972,
1.9925,-0.130615,
1.993,-0.0527954,
1.9935,0.0361633,
1.994,0.0758362,
1.9945,-0.0770569,
1.995,-0.337372,
1.9955,-0.545197,
1.996,-0.671387,
1.9965,-0.684357,
1.997,-0.553436,
1.9975,-0.361786,
1.998,-0.195313,
1.9985,0.0238037,
1.999,0.290222,
1.9995,0.45105,
2,0.419922,
2.0005,0.232391,
2.001,0.0238037,
2.0015,-0.0106812,
2.002,0.218353,
2.0025,0.569763,
2.003,0.852356,
2.0035,0.951538,
2.004,0.906067,
2.0045,0.785675,
2.005,0.567627,
2.0055,0.279846,
2.006,-0.0228882,
2.0065,-0.328674,
2.007,-0.61554,
2.0075,-0.822906,
2.008,-0.958405,
2.0085,-1.0762,
2.009,-1.10672,
2.0095,-0.95459,
2.01,-0.688477,
2.0105,-0.372772,
2.011,0.00534058,
2.0115,0.426025,
2.012,0.762939,
2.0125,0.941162,
2.013,1.01135,
2.0135,0.937805,
2.014,0.695343,
2.0145,0.485992,
2.015,0.422058,
2.0155,0.33493,
2.016,0.0837708,
2.0165,-0.236664,
2.017,-0.444794,
2.0175,-0.454254,
2.018,-0.331879,
2.0185,-0.15274,
2.019,-0.0694275,
2.0195,-0.160828,
2.02,-0.309601,
2.0205,-0.382843,
2.021,-0.341797,
2.0215,-0.168457,
2.022,0.111542,
2.0225,0.418854,
2.023,0.632172,
2.0235,0.553894,
2.024,0.304565,
2.0245,0.135956,
2.025,0.000305176,
2.0255,-0.187988,
2.026,-0.36438,
2.0265,-0.490112,
2.027,-0.622864,
2.0275,-0.77179,
2.028,-0.930176,
2.0285,-1.01608,
2.029,-1.03455,
2.0295,-1.03104,
2.03,-1.00342,
2.0305,-0.898285,
2.031,-0.787048,
2.0315,-0.762787,
2.032,-0.723419,
2.0325,-0.56778,
2.033,-0.191345,
2.0335,0.353241,
2.034,0.921936,
2.0345,1.33682,
2.035,1.50101,
2.0355,1.41739,
2.036,1.20956,
2.0365,1.01837,
2.037,0.895996,
2.0375,0.775146,
2.038,0.593872,
2.0385,0.469055,
2.039,0.522461,
2.0395,0.663605,
2.04,0.675354,
2.0405,0.513153,
2.041,0.314026,
2.0415,0.167694,
2.042,0.085907,
2.0425,0.0636292,
2.043,0.0772095,
2.0435,0.088501,
2.044,0.0813293,
2.0445,0.0404358,
2.045,-0.0584412,
2.0455,-0.174866,
2.046,-0.264893,
2.0465,-0.31662,
2.047,-0.335999,
2.0475,-0.329132,
2.048,-0.304108,
2.0485,-0.264893,
2.049,-0.194092,
2.0495,-0.110168,
2.05,-0.0402832,
2.0505,-0.0259399,
2.051,-0.0180054,
2.0515,0.0280762,
2.052,0.0570679,
2.0525,0.0737,
2.053,0.0733948,
2.0535,0.0120544,
2.054,-0.0691223,
2.0545,-0.156555,
2.055,-0.2771,
2.0555,-0.411682,
2.056,-0.536652,
2.0565,-0.644836,
2.057,-0.693054,
2.0575,-0.674438,
2.058,-0.605011,
2.0585,-0.539093,
2.059,-0.500336,
2.0595,-0.540619,
2.06,-0.66864,
2.0605,-0.654297,
2.061,-0.374603,
2.0615,-0.0247192,
2.062,0.233612,
2.0625,0.482483,
2.063,0.753632,
2.0635,0.996094,
2.064,1.18896,
2.0645,1.21841,
2.065,1.0112,
2.0655,0.65567,
2.066,0.329132,
2.0665,0.12558,
2.067,0.0146484,
2.0675,-0.055542,
2.068,-0.0997925,
2.0685,-0.109711,
2.069,-0.0584412,
2.0695,0.0244141,
2.07,0.0317383,
2.0705,-0.0418091,
2.071,-0.109558,
2.0715,-0.119629,
2.072,-0.0846863,
2.0725,-0.0421143,
2.073,0.0196838,
2.0735,0.149689,
2.074,0.283813,
2.0745,0.290527,
2.075,0.166473,
2.0755,0.00396729,
2.076,-0.108337,
2.0765,-0.182037,
2.077,-0.235901,
2.0775,-0.298767,
2.078,-0.419464,
2.0785,-0.552216,
2.079,-0.652161,
2.0795,-0.699615,
2.08,-0.69809,
2.0805,-0.684509,
2.081,-0.671692,
2.0815,-0.637665,
2.082,-0.587006,
2.0825,-0.421295,
2.083,-0.0172424,
2.0835,0.373688,
2.084,0.415802,
2.0845,0.248108,
2.085,0.192566,
2.0855,0.218964,
2.086,0.114136,
2.0865,-0.108795,
2.087,-0.255432,
2.0875,-0.181885,
2.088,0.205231,
2.0885,0.587463,
2.089,0.574646,
2.0895,0.267639,
2.09,-0.0392151,
2.0905,-0.236816,
2.091,-0.318298,
2.0915,-0.292511,
2.092,-0.176697,
2.0925,0.0247192,
2.093,0.262604,
2.0935,0.294952,
2.094,0.123291,
2.0945,0.087738,
2.095,0.177307,
2.0955,0.0942993,
2.096,-0.143433,
2.0965,-0.339661,
2.097,-0.447998,
2.0975,-0.491791,
2.098,-0.466766,
2.0985,-0.325012,
2.099,-0.032959,
2.0995,0.29068,
2.1,0.502472,
2.1005,0.700531,
2.101,0.935059,
2.1015,1.03378,
2.102,1.00922,
2.1025,1.017,
2.103,1.01318,
2.1035,0.93811,
2.104,0.786285,
2.1045,0.563354,
2.105,0.353241,
2.1055,0.216827,
2.106,0.122833,
2.1065,0.0440979,
2.107,-0.00823975,
2.1075,-0.0410461,
2.108,-0.0747681,
2.1085,-0.110168,
2.109,-0.167389,
2.1095,-0.279541,
2.11,-0.430603,
2.1105,-0.579224,
2.111,-0.674133,
2.1115,-0.698853,
2.112,-0.685577,
2.1125,-0.684357,
2.113,-0.749817,
2.1135,-0.830078,
2.114,-0.846405,
2.1145,-0.773773,
2.115,-0.6427,
2.1155,-0.577698,
2.116,-0.59082,
2.1165,-0.555267,
2.117,-0.396729,
2.1175,-0.088501,
2.118,0.291443,
2.1185,0.532532,
2.119,0.531158,
2.1195,0.469055,
2.12,0.455017,
2.1205,0.440521,
2.121,0.543365,
2.1215,0.813446,
2.122,1.1319,
2.1225,1.32278,
2.123,1.25549,
2.1235,0.91217,
2.124,0.500183,
2.1245,0.230408,
2.125,0.0819397,
2.1255,-0.0292969,
2.126,-0.128326,
2.1265,-0.1828,
2.127,-0.207062,
2.1275,-0.228577,
2.128,-0.246582,
2.1285,-0.242767,
2.129,-0.193481,
2.1295,-0.121613,
2.13,-0.0765991,
2.1305,-0.0701904,
2.131,-0.0871277,
2.1315,-0.121155,
2.132,-0.138702,
2.1325,-0.151367,
2.133,-0.175323,
2.1335,-0.198212,
2.134,-0.200653,
2.1345,-0.179443,
2.135,-0.157928,
2.1355,-0.157928,
2.136,-0.177612,
2.1365,-0.192566,
2.137,-0.197754,
2.1375,-0.210419,
2.138,-0.23056,
2.1385,-0.237122,
2.139,-0.225983,
2.1395,-0.198517,
2.14,-0.16449,
2.1405,-0.145416,
2.141,-0.161133,
2.1415,-0.208588,
2.142,-0.264587,
2.1425,-0.311279,
2.143,-0.348053,
2.1435,-0.393829,
2.144,-0.409851,
2.1445,-0.368195,
2.145,-0.338898,
2.1455,-0.377655,
2.146,-0.391846,
2.1465,-0.309906,
2.147,-0.179596,
2.1475,-0.117035,
2.148,-0.0762939,
2.1485,0.0856018,
2.149,0.275574,
2.1495,0.321503,
2.15,0.267639,
2.1505,0.153198,
2.151,0.0526428,
2.1515,0.130005,
2.152,0.379791,
2.1525,0.549469,
2.153,0.582275,
2.1535,0.624237,
2.154,0.704498,
2.1545,0.737152,
2.155,0.633087,
2.1555,0.393982,
2.156,0.13916,
2.1565,0.0126648,
2.157,-0.0596619,
2.1575,-0.115662,
2.158,-0.162048,
2.1585,-0.197144,
2.159,-0.211792,
2.1595,-0.208588,
2.16,-0.175629,
2.1605,-0.113068,
2.161,-0.0317383,
2.1615,0.0813293,
2.162,0.147552,
2.1625,0.0854492,
2.163,-0.0419617,
2.1635,-0.14328,
2.164,-0.20874,
2.1645,-0.262451,
2.165,-0.302734,
2.1655,-0.310211,
2.166,-0.317993,
2.1665,-0.304108,
2.167,-0.302429,
2.1675,-0.401611,
2.168,-0.548401,
2.1685,-0.608215,
2.169,-0.503845,
2.1695,-0.278168,
2.17,-0.045929,
2.1705,0.0404358,
2.171,-0.0448608,
2.1715,-0.0773621,
2.172,0.0506592,
2.1725,0.236664,
2.173,0.379791,
2.1735,0.403442,
2.174,0.353241,
2.1745,0.343628,
2.175,0.36026,
2.1755,0.255127,
2.176,0.00259399,
2.1765,-0.142365,
2.177,-0.0289917,
2.1775,0.176849,
2.178,0.306549,
2.1785,0.296326,
2.179,0.145416,
2.1795,-0.0497437,
2.18,-0.19165,
2.1805,-0.161896,
2.181,0.176086,
2.1815,0.637054,
2.182,0.840912,
2.1825,0.790558,
2.183,0.738373,
2.1835,0.765686,
2.184,0.708466,
2.1845,0.517273,
2.185,0.304565,
2.1855,0.143127,
2.186,0.0349426,
2.1865,-0.0358582,
2.187,-0.114899,
2.1875,-0.208588,
2.188,-0.26825,
2.1885,-0.280304,
2.189,-0.2771,
2.1895,-0.261536,
2.19,-0.246124,
2.1905,-0.238342,
2.191,-0.235748,
2.1915,-0.234833,
2.192,-0.231018,
2.1925,-0.233459,
2.193,-0.245361,
2.1935,-0.238495,
2.194,-0.176849,
2.1945,-0.0862122,
2.195,-0.063324,
2.1955,-0.100708,
2.196,-0.124664,
2.1965,-0.104675,
2.197,-0.0392151,
2.1975,0.0592041,
2.198,0.140686,
2.1985,0.160828,
2.199,0.135651,
2.1995,0.105591,
2.2,0.0941467,
2.2005,0.102997,
2.201,0.0820923,
2.2015,0.0105286,
2.202,-0.0776672,
2.2025,-0.146942,
2.203,-0.213928,
2.2035,-0.324402,
2.204,-0.428925,
2.2045,-0.538177,
2.205,-0.713348,
2.2055,-0.921021,
2.206,-1.05072,
2.2065,-1.09085,
2.207,-1.07635,
2.2075,-1.02753,
2.208,-0.954285,
2.2085,-0.865173,
2.209,-0.690155,
2.2095,-0.303955,
2.21,0.344696,
2.2105,1.10641,
2.211,1.69571,
2.2115,1.93146,
2.212,1.89011,
2.2125,1.74545,
2.213,1.42868,
2.2135,0.957794,
2.214,0.589752,
2.2145,0.422363,
2.215,0.326843,
2.2155,0.203857,
2.216,0.1297,
2.2165,0.137787,
2.217,0.155029,
2.2175,0.128174,
2.218,0.0752258,
2.2185,0.0317383,
2.219,-0.0393677,
2.2195,-0.135498,
2.22,-0.207214,
2.2205,-0.259399,
2.221,-0.286865,
2.2215,-0.268402,
2.222,-0.218048,
2.2225,-0.172272,
2.223,-0.124817,
2.2235,-0.0512695,
2.224,0.0204468,
2.2245,0.037384,
2.225,0.00106812,
2.2255,-0.045166,
2.226,-0.0727844,
2.2265,-0.0857544,
2.227,-0.0933838,
2.2275,-0.0976563,
2.228,-0.116882,
2.2285,-0.163116,
2.229,-0.198669,
2.2295,-0.223694,
2.23,-0.22522,
2.2305,-0.224304,
2.231,-0.256805,
2.2315,-0.290527,
2.232,-0.305939,
2.2325,-0.313568,
2.233,-0.315857,
2.2335,-0.315399,
2.234,-0.32074,
2.2345,-0.337677,
2.235,-0.36087,
2.2355,-0.374146,
2.236,-0.359039,
2.2365,-0.318451,
2.237,-0.275879,
2.2375,-0.257721,
2.238,-0.278015,
2.2385,-0.274658,
2.239,-0.240479,
2.2395,-0.20752,
2.24,-0.128326,
2.2405,-0.017395,
2.241,0.147858,
2.2415,0.320129,
2.242,0.354462,
2.2425,0.295715,
2.243,0.302429,
2.2435,0.370026,
2.244,0.394592,
2.2445,0.406952,
2.245,0.437469,
2.2455,0.397186,
2.246,0.327148,
2.2465,0.370483,
2.247,0.499268,
2.2475,0.536957,
2.248,0.417786,
2.2485,0.257721,
2.249,0.156555,
2.2495,0.0987244,
2.25,0.0424194,
2.2505,-0.0169373,
2.251,-0.0596619,
2.2515,-0.0918579,
2.252,-0.106354,
2.2525,-0.0949097,
2.253,-0.0657654,
2.2535,-0.0274658,
2.254,-0.00747681,
2.2545,-0.0180054,
2.255,-0.0532532,
2.2555,-0.101929,
2.256,-0.151367,
2.2565,-0.185242,
2.257,-0.199432,
2.2575,-0.167999,
2.258,-0.0524902,
2.2585,0.101318,
2.259,0.174255,
2.2595,0.145874,
2.26,0.0585938,
2.2605,-0.106506,
2.261,-0.298004,
2.2615,-0.442963,
2.262,-0.553131,
2.2625,-0.665588,
2.263,-0.779419,
2.2635,-0.912323,
2.264,-0.981445,
2.2645,-0.913086,
2.265,-0.771484,
2.2655,-0.592804,
2.266,-0.353546,
2.2665,-0.00717163,
2.267,0.4422,
2.2675,0.825348,
2.268,1.09146,
2.2685,1.26785,
2.269,1.25824,
2.2695,1.10352,
2.27,0.881348,
2.2705,0.570374,
2.271,0.230255,
2.2715,-0.00473022,
2.272,-0.107269,
2.2725,-0.175323,
2.273,-0.236664,
2.2735,-0.28656,
2.274,-0.327911,
2.2745,-0.278625,
2.275,-0.0471497,
2.2755,0.298157,
2.276,0.539093,
2.2765,0.630341,
2.277,0.70343,
2.2775,0.855408,
2.278,0.970459,
2.2785,0.878296,
2.279,0.565948,
2.2795,0.167389,
2.28,-0.157928,
2.2805,-0.291901,
2.281,-0.268097,
2.2815,-0.200806,
2.282,-0.164337,
2.2825,-0.145569,
2.283,-0.139008,
2.2835,-0.161133,
2.284,-0.205536,
2.2845,-0.258331,
2.285,-0.301056,
2.2855,-0.310364,
2.286,-0.294189,
2.2865,-0.271759,
2.287,-0.246735,
2.2875,-0.222473,
2.288,-0.198975,
2.2885,-0.185699,
2.289,-0.179291,
2.2895,-0.165863,
2.29,-0.136108,
2.2905,-0.113068,
2.291,-0.106049,
2.2915,-0.100098,
2.292,-0.0923157,
2.2925,-0.0982666,
2.293,-0.0993347,
2.2935,-0.0918579,
2.294,-0.0933838,
2.2945,-0.112152,
2.295,-0.129395,
2.2955,-0.130463,
2.296,-0.12085,
2.2965,-0.117188,
2.297,-0.130615,
2.2975,-0.152283,
2.298,-0.150757,
2.2985,-0.125275,
2.299,-0.10376,
2.2995,-0.105743,
2.3,-0.124207,
2.3005,-0.135651,
2.301,-0.123444,
2.3015,-0.0790405,
2.302,-0.0230408,
2.3025,0.0012207,
2.303,-0.0354004,
2.3035,-0.0839233,
2.304,-0.0965881,
2.3045,-0.105591,
2.305,-0.144196,
2.3055,-0.194244,
2.306,-0.239105,
2.3065,-0.269165,
2.307,-0.26413,
2.3075,-0.200195,
2.308,-0.0901794,
2.3085,0.019989,
2.309,0.0747681,
2.3095,0.088501,
2.31,0.102539,
2.3105,0.128021,
2.311,0.136108,
2.3115,0.161896,
2.312,0.262299,
2.3125,0.351868,
2.313,0.348206,
2.3135,0.294189,
2.314,0.264435,
2.3145,0.31662,
2.315,0.374603,
2.3155,0.327454,
2.316,0.217285,
2.3165,0.171356,
2.317,0.184479,
2.3175,0.15976,
2.318,0.0704956,
2.3185,-0.0100708,
2.319,-0.0354004,
2.3195,-0.0384521,
2.32,-0.0559998,
2.3205,-0.058136,
2.321,-0.0183105,
2.3215,0.0569153,
2.322,0.127869,
2.3225,0.129089,
2.323,0.0723267,
2.3235,-0.0180054,
2.324,-0.159454,
2.3245,-0.285339,
2.325,-0.373535,
2.3255,-0.448303,
2.326,-0.501251,
2.3265,-0.549164,
2.327,-0.567932,
2.3275,-0.531769,
2.328,-0.439301,
2.3285,-0.310516,
2.329,-0.142059,
2.3295,0.0753784,
2.33,0.33905,
2.3305,0.595703,
2.331,0.775604,
2.3315,0.857086,
2.332,0.831909,
2.3325,0.705261,
2.333,0.509491,
2.3335,0.299835,
2.334,0.110626,
2.3345,-0.0218201,
2.335,-0.0914001,
2.3355,-0.107269,
2.336,-0.0575256,
2.3365,0.0283813,
2.337,0.0746155,
2.3375,0.0680542,
2.338,0.0550842,
2.3385,-0.00823975,
2.339,-0.16922,
2.3395,-0.337524,
2.34,-0.424652,
2.3405,-0.394897,
2.341,-0.23941,
2.3415,-0.010376,
2.342,0.167847,
2.3425,0.196228,
2.343,0.141296,
2.3435,0.144348,
2.344,0.220337,
2.3445,0.26413,
2.345,0.245361,
2.3455,0.206451,
2.346,0.200806,
2.3465,0.231323,
2.347,0.257874,
2.3475,0.244598,
2.348,0.19104,
2.3485,0.13855,
2.349,0.123291,
2.3495,0.116882,
2.35,0.105133,
2.3505,0.072937,
2.351,0.0309753,
2.3515,-0.0215149,
2.352,-0.0810242,
2.3525,-0.130768,
2.353,-0.15274,
2.3535,-0.142517,
2.354,-0.133209,
2.3545,-0.148163,
2.355,-0.171814,
2.3555,-0.203705,
2.356,-0.245514,
2.3565,-0.274811,
2.357,-0.282135,
2.3575,-0.283813,
2.358,-0.28244,
2.3585,-0.290527,
2.359,-0.292206,
2.3595,-0.244446,
2.36,-0.229034,
2.3605,-0.34317,
2.361,-0.493011,
2.3615,-0.597992,
2.362,-0.699158,
2.3625,-0.841217,
2.363,-1.0112,
2.3635,-1.14578,
2.364,-1.16745,
2.3645,-1.07101,
2.365,-0.875854,
2.3655,-0.542908,
2.366,-0.0218201,
2.3665,0.634766,
2.367,1.2648,
2.3675,1.7572,
2.368,1.97357,
2.3685,1.78802,
2.369,1.28693,
2.3695,0.758972,
2.37,0.407104,
2.3705,0.261383,
2.371,0.271149,
2.3715,0.352173,
2.372,0.435638,
2.3725,0.486908,
2.373,0.4776,
2.3735,0.399017,
2.374,0.303497,
2.3745,0.236359,
2.375,0.176849,
2.3755,0.0866699,
2.376,-0.0283813,
2.3765,-0.131073,
2.377,-0.200348,
2.3775,-0.243683,
2.378,-0.239563,
2.3785,-0.19577,
2.379,-0.15625,
2.3795,-0.15213,
2.38,-0.177002,
2.3805,-0.197296,
2.381,-0.196075,
2.3815,-0.177765,
2.382,-0.162048,
2.3825,-0.162201,
2.383,-0.176697,
2.3835,-0.214996,
2.384,-0.24826,
2.3845,-0.248108,
2.385,-0.238342,
2.3855,-0.233002,
2.386,-0.224457,
2.3865,-0.218201,
2.387,-0.215607,
2.3875,-0.234222,
2.388,-0.275421,
2.3885,-0.314026,
2.389,-0.33432,
2.3895,-0.332489,
2.39,-0.343323,
2.3905,-0.379181,
2.391,-0.404358,
2.3915,-0.378723,
2.392,-0.308228,
2.3925,-0.229034,
2.393,-0.15274,
2.3935,-0.0862122,
2.394,-0.0102234,
2.3945,0.144806,
2.395,0.386505,
2.3955,0.572052,
2.396,0.610199,
2.3965,0.537415,
2.397,0.4039,
2.3975,0.233612,
2.398,0.057373,
2.3985,-0.0788879,
2.399,-0.163879,
2.3995,-0.11261,
2.4,0.0402832,
2.4005,0.0646973,
2.401,-0.0556946,
2.4015,-0.131226,
2.402,-0.104523,
2.4025,-0.0456238,
2.403,0.0469971,
2.4035,0.205688,
2.404,0.35675,
2.4045,0.402527,
2.405,0.404205,
2.4055,0.415039,
2.406,0.358429,
2.4065,0.223236,
2.407,0.0933838,
2.4075,0.027771,
2.408,0.010376,
2.4085,-0.00579834,
2.409,-0.0349426,
2.4095,-0.0558472,
2.41,-0.0619507,
2.4105,-0.0662231,
2.411,-0.0715637,
2.4115,-0.0759888,
2.412,-0.0942993,
2.4125,-0.11795,
2.413,-0.133057,
2.4135,-0.160675,
2.414,-0.193481,
2.4145,-0.204926,
2.415,-0.201721,
2.4155,-0.198822,
2.416,-0.206146,
2.4165,-0.238647,
2.417,-0.254669,
2.4175,-0.23407,
2.418,-0.213623,
2.4185,-0.231476,
2.419,-0.246277,
2.4195,-0.21286,
2.42,-0.149384,
2.4205,-0.0784302,
2.421,-0.00198364,
2.4215,0.0785828,
2.422,0.155487,
2.4225,0.224915,
2.423,0.282135,
2.4235,0.281067,
2.424,0.195618,
2.4245,0.0749207,
2.425,-0.0248718,
2.4255,-0.0961304,
2.426,-0.167999,
2.4265,-0.255432,
2.427,-0.306091,
2.4275,-0.240784,
2.428,-0.110016,
2.4285,-0.00747681,
2.429,0.0842285,
2.4295,0.202942,
2.43,0.330505,
2.4305,0.511322,
2.431,0.781555,
2.4315,1.06537,
2.432,1.10001,
2.4325,0.816498,
2.433,0.470581,
2.4335,0.225067,
2.434,0.0549316,
2.4345,-0.0863647,
2.435,-0.208588,
2.4355,-0.323792,
2.436,-0.436249,
2.4365,-0.518036,
2.437,-0.549011,
2.4375,-0.526581,
2.438,-0.449829,
2.4385,-0.365448,
2.439,-0.332184,
2.4395,-0.334015,
2.44,-0.263214,
2.4405,0.00579834,
2.441,0.366516,
2.4415,0.597229,
2.442,0.660095,
2.4425,0.637817,
2.443,0.557098,
2.4435,0.437469,
2.444,0.357971,
2.4445,0.305786,
2.445,0.22522,
2.4455,0.11795,
2.446,0.0346375,
2.4465,-0.00518799,
2.447,-0.0218201,
2.4475,-0.03479,
2.448,-0.0509644,
2.4485,-0.0820923,
2.449,-0.158234,
2.4495,-0.245361,
2.45,-0.280151,
2.4505,-0.267944,
2.451,-0.232697,
2.4515,-0.189972,
2.452,-0.158234,
2.4525,-0.140533,
2.453,-0.133209,
2.4535,-0.135956,
2.454,-0.153503,
2.4545,-0.177917,
2.455,-0.197449,
2.4555,-0.2034,
2.456,-0.206909,
2.4565,-0.213013,
2.457,-0.188751,
2.4575,-0.125122,
2.458,-0.0912476,
2.4585,-0.100708,
2.459,-0.11734,
2.4595,-0.128784,
2.46,-0.104218,
2.4605,0.000457764,
2.461,0.21698,
2.4615,0.407562,
2.462,0.392914,
2.4625,0.26947,
2.463,0.225372,
2.4635,0.24292,
2.464,0.218964,
2.4645,0.149689,
2.465,0.0624084,
2.4655,-0.0402832,
2.466,-0.121307,
2.4665,-0.161743,
2.467,-0.175018,
2.4675,-0.179901,
2.468,-0.172119,
2.4685,-0.138092,
2.469,-0.0947571,
2.4695,-0.0561523,
2.47,-0.0238037,
2.4705,-0.0119019,
2.471,-0.0267029,
2.4715,-0.0524902,
2.472,-0.0663757,
2.4725,-0.0669861,
2.473,-0.057373,
2.4735,-0.0415039,
2.474,-0.0170898,
2.4745,0.0151062,
2.475,0.0450134,
2.4755,0.0566101,
2.476,0.0454712,
2.4765,0.0280762,
2.477,0.0105286,
2.4775,-0.0248718,
2.478,-0.0643921,
2.4785,-0.114594,
2.479,-0.153198,
2.4795,-0.147552,
2.48,-0.105743,
2.4805,-0.06073,
2.481,-0.0308228,
2.4815,-0.0392151,
2.482,-0.0679016,
2.4825,-0.0759888,
2.483,-0.0570679,
2.4835,-0.0482178,
2.484,-0.0422668,
2.4845,-0.0334167,
2.485,-0.0474548,
2.4855,-0.0857544,
2.486,-0.113831,
2.4865,-0.130157,
2.487,-0.145111,
2.4875,-0.147552,
2.488,-0.135498,
2.4885,-0.118103,
2.489,-0.0933838,
2.4895,-0.0515747,
2.49,-0.000915527,
2.4905,0.0578308,
2.491,0.128021,
2.4915,0.191193,
2.492,0.196838,
2.4925,0.147247,
2.493,0.0965881,
2.4935,0.0405884,
2.494,-0.0750732,
2.4945,-0.22583,
2.495,-0.348816,
2.4955,-0.418091,
2.496,-0.442352,
2.4965,-0.442352,
2.497,-0.405731,
2.4975,-0.319366,
2.498,-0.18158,
2.4985,-0.0276184,
2.499,0.0843811,
2.4995,0.182495,
2.5,0.331573,
2.5005,0.522766,
2.501,0.665131,
2.5015,0.699005,
2.502,0.639801,
2.5025,0.551453,
2.503,0.452881,
2.5035,0.298157,
2.504,0.131531,
2.5045,0.0509644,
2.505,0.0820923,
2.5055,0.162964,
2.506,0.231171,
2.5065,0.282898,
2.507,0.313568,
2.5075,0.310974,
2.508,0.268707,
2.5085,0.196686,
2.509,0.104065,
2.5095,0.0143433,
2.51,-0.0283813,
2.5105,-0.0454712,
2.511,-0.0843811,
2.5115,-0.13504,
2.512,-0.149384,
2.5125,-0.134277,
2.513,-0.142822,
2.5135,-0.167542,
2.514,-0.172272,
2.5145,-0.157776,
2.515,-0.146332,
2.5155,-0.142212,
2.516,-0.144043,
2.5165,-0.150452,
2.517,-0.170441,
2.5175,-0.186462,
2.518,-0.201721,
2.5185,-0.224304,
2.519,-0.240173,
2.5195,-0.205688,
2.52,-0.0941467,
2.5205,0.0575256,
2.521,0.134583,
2.5215,0.0875854,
2.522,0.00213623,
2.5225,-0.0262451,
2.523,0.0184631,
2.5235,0.109406,
2.524,0.154266,
2.5245,0.1474,
2.525,0.128326,
2.5255,0.0674438,
2.526,-0.0158691,
2.5265,-0.0811768,
2.527,-0.110931,
2.5275,-0.120087,
2.528,-0.11322,
2.5285,-0.093689,
2.529,-0.0341797,
2.5295,0.0773621,
2.53,0.17807,
2.5305,0.231781,
2.531,0.263367,
2.5315,0.278473,
2.532,0.258484,
2.5325,0.188904,
2.533,0.0985718,
2.5335,0.0210571,
2.534,-0.0196838,
2.5345,-0.0314331,
2.535,-0.0364685,
2.5355,-0.0360107,
2.536,-0.00854492,
2.5365,0.00640869,
2.537,-0.0158691,
2.5375,-0.0514221,
2.538,-0.08255,
2.5385,-0.105438,
2.539,-0.139313,
2.5395,-0.176544,
2.54,-0.20401,
2.5405,-0.236206,
2.541,-0.261536,
2.5415,-0.239105,
2.542,-0.155334,
2.5425,-0.0337219,
2.543,0.0595093,
2.5435,0.0979614,
2.544,0.0866699,
2.5445,0.0483704,
2.545,0.000152588,
2.5455,-0.0352478,
2.546,-0.045929,
2.5465,-0.0354004,
2.547,-0.0138855,
2.5475,-0.00488281,
2.548,-0.00869751,
2.5485,-0.00930786,
2.549,-0.0141907,
2.5495,-0.0308228,
2.55,-0.0448608,
2.5505,-0.0442505,
2.551,-0.0431824,
2.5515,-0.0588989,
2.552,-0.0895691,
2.5525,-0.0947571,
2.553,-0.0756836,
2.5535,-0.0750732,
2.554,-0.0926208,
2.5545,-0.104675,
2.555,-0.0999451,
2.5555,-0.0839233,
2.556,-0.070343,
2.5565,-0.0578308,
2.557,-0.0410461,
2.5575,-0.0132751,
2.558,0.0135803,
2.5585,0.0312805,
2.559,0.045166,
2.5595,0.0680542,
2.56,0.0991821,
2.5605,0.133209,
2.561,0.15625,
2.5615,0.1474,
2.562,0.0787354,
2.5625,-0.0350952,
2.563,-0.198364,
2.5635,-0.360107,
2.564,-0.433197,
2.5645,-0.420837,
2.565,-0.404053,
2.5655,-0.428619,
2.566,-0.453491,
2.5665,-0.421753,
2.567,-0.352783,
2.5675,-0.276337,
2.568,-0.191803,
2.5685,-0.0614929,
2.569,0.200195,
2.5695,0.55069,
2.57,0.769196,
2.5705,0.831757,
2.571,0.91629,
2.5715,0.977173,
2.572,0.841827,
2.5725,0.531616,
2.573,0.254364,
2.5735,0.1091,
2.574,0.0462341,
2.5745,0.00839233,
2.575,-0.0267029,
2.5755,-0.0714111,
2.576,-0.113831,
2.5765,-0.134888,
2.577,-0.133667,
2.5775,-0.120087,
2.578,-0.0906372,
2.5785,-0.0630188,
2.579,-0.037384,
2.5795,-0.0128174,
2.58,-0.0050354,
2.5805,-0.0482178,
2.581,-0.100861,
2.5815,-0.133362,
2.582,-0.180359,
2.5825,-0.230865,
2.583,-0.253296,
2.5835,-0.261841,
2.584,-0.24353,
2.5845,-0.16922,
2.585,-0.104065,
2.5855,-0.0976563,
2.586,-0.115662,
2.5865,-0.101776,
2.587,-0.0320435,
2.5875,0.085907,
2.588,0.229645,
2.5885,0.316772,
2.589,0.322723,
2.5895,0.261383,
2.59,0.159149,
2.5905,0.0640869,
2.591,-0.012207,
2.5915,-0.0617981,
2.592,-0.0727844,
2.5925,-0.0732422,
2.593,-0.0392151,
2.5935,0.032959,
2.594,0.0866699,
2.5945,0.0868225,
2.595,0.0535583,
2.5955,0.038147,
2.596,0.0544739,
2.5965,0.0462341,
2.597,0.0265503,
2.5975,0.0306702,
2.598,0.0466919,
2.5985,0.0762939,
2.599,0.117798,
2.5995,0.155182,
2.6,0.193634,
2.6005,0.211639,
2.601,0.180511,
2.6015,0.102844,
2.602,0.0297546,
2.6025,-0.0190735,
2.603,-0.0440979,
2.6035,-0.0494385,
2.604,-0.0398254,
2.6045,-0.0253296,
2.605,-0.0152588,
2.6055,-0.0349426,
2.606,-0.0602722,
2.6065,-0.0683594,
2.607,-0.0688171,
2.6075,-0.108185,
2.608,-0.182343,
2.6085,-0.248718,
2.609,-0.289917,
2.6095,-0.312805,
2.61,-0.304565,
2.6105,-0.262756,
2.611,-0.205994,
2.6115,-0.140686,
2.612,-0.0843811,
2.6125,-0.0375366,
2.613,0.00259399,
2.6135,0.052948,
2.614,0.109558,
2.6145,0.138092,
2.615,0.132751,
2.6155,0.13916,
2.616,0.16571,
2.6165,0.16449,
2.617,0.111084,
2.6175,0.0279236,
2.618,-0.0531006,
2.6185,-0.112,
2.619,-0.140076,
2.6195,-0.141907,
2.62,-0.135193,
2.6205,-0.124207,
2.621,-0.101013,
2.6215,-0.0666809,
2.622,-0.0119019,
2.6225,0.0514221,
2.623,0.0782776,
2.6235,0.0500488,
2.624,-0.0038147,
2.6245,-0.0209045,
2.625,0.0378418,
2.6255,0.114441,
2.626,0.153809,
2.6265,0.174866,
2.627,0.190887,
2.6275,0.188904,
2.628,0.175171,
2.6285,0.139618,
2.629,0.0933838,
2.6295,0.0593567,
2.63,0.020752,
2.6305,-0.0369263,
2.631,-0.106354,
2.6315,-0.174713,
2.632,-0.19989,
2.6325,-0.178833,
2.633,-0.13916,
2.6335,-0.0820923,
2.634,0.000305176,
2.6345,0.0549316,
2.635,0.0537109,
2.6355,0.0271606,
2.636,0.0114441,
2.6365,0.0178528,
2.637,0.0263977,
2.6375,0.00167847,
2.638,-0.0520325,
2.6385,-0.0886536,
2.639,-0.115204,
2.6395,-0.140533,
2.64,-0.138702,
2.6405,-0.142212,
2.641,-0.161438,
2.6415,-0.180206,
2.642,-0.178986,
2.6425,-0.153046,
2.643,-0.135345,
2.6435,-0.142517,
2.644,-0.151978,
2.6445,-0.148315,
2.645,-0.13382,
2.6455,-0.110168,
2.646,-0.104675,
2.6465,-0.133972,
2.647,-0.195923,
2.6475,-0.236053,
2.648,-0.242157,
2.6485,-0.251465,
2.649,-0.258484,
2.6495,-0.245056,
2.65,-0.221558,
2.6505,-0.203705,
2.651,-0.165405,
2.6515,-0.0498962,
2.652,0.137482,
2.6525,0.37735,
2.653,0.619202,
2.6535,0.767517,
2.654,0.80246,
2.6545,0.791779,
2.655,0.770416,
2.6555,0.692291,
2.656,0.537872,
2.6565,0.339203,
2.657,0.159302,
2.6575,0.0270081,
2.658,-0.0582886,
2.6585,-0.116119,
2.659,-0.181427,
2.6595,-0.235443,
2.66,-0.245514,
2.6605,-0.245972,
2.661,-0.22522,
2.6615,-0.126343,
2.662,0.0170898,
2.6625,0.116577,
2.663,0.166321,
2.6635,0.192413,
2.664,0.16922,
2.6645,0.119781,
2.665,0.080719,
2.6655,0.0360107,
2.666,-0.0231934,
2.6665,-0.0868225,
2.667,-0.093689,
2.6675,-0.050354,
2.668,-0.0341797,
2.6685,-0.0535583,
2.669,-0.0656128,
2.6695,-0.0810242,
2.67,-0.100403,
2.6705,-0.0942993,
2.671,-0.0718689,
2.6715,-0.0421143,
2.672,-0.0157166,
2.6725,-0.00976563,
2.673,-0.000610352,
2.6735,0.0669861,
2.674,0.209656,
2.6745,0.299988,
2.675,0.261841,
2.6755,0.14328,
2.676,0.0154114,
2.6765,-0.0759888,
2.677,-0.119476,
2.6775,-0.139008,
2.678,-0.139008,
2.6785,-0.105896,
2.679,-0.0439453,
2.6795,0.00228882,
2.68,0.0134277,
2.6805,0.0234985,
2.681,0.025177,
2.6815,-0.00335693,
2.682,-0.0466919,
2.6825,-0.0753784,
2.683,-0.0714111,
2.6835,-0.0521851,
2.684,-0.0532532,
2.6845,-0.0753784,
2.685,-0.0892639,
2.6855,-0.0836182,
2.686,-0.0787354,
2.6865,-0.0869751,
2.687,-0.0985718,
2.6875,-0.0997925,
2.688,-0.083313,
2.6885,-0.0189209,
2.689,0.0656128,
2.6895,0.102234,
2.69,0.0912476,
2.6905,0.0767517,
2.691,0.0712585,
2.6915,0.0538635,
2.692,0.0361633,
2.6925,0.0378418,
2.693,0.0500488,
2.6935,0.0415039,
2.694,0.0241089,
2.6945,0.012207,
2.695,-0.0111389,
2.6955,-0.0498962,
2.696,-0.0843811,
2.6965,-0.0947571,
2.697,-0.072937,
2.6975,-0.0402832,
2.698,-0.00320435,
2.6985,0.0175476,
2.699,0.00473022,
2.6995,-0.0126648,
2.7,-0.0445557,
2.7005,-0.0939941,
2.701,-0.136414,
2.7015,-0.158539,
2.702,-0.189514,
2.7025,-0.226288,
2.703,-0.244446,
2.7035,-0.246277,
2.704,-0.242157,
2.7045,-0.225372,
2.705,-0.198059,
2.7055,-0.16922,
2.706,-0.157166,
2.7065,-0.180206,
2.707,-0.192719,
2.7075,-0.161743,
2.708,-0.101166,
2.7085,-0.0401306,
2.709,0.0106812,
2.7095,0.0517273,
2.71,0.0801086,
2.7105,0.087738,
2.711,0.0874329,
2.7115,0.114746,
2.712,0.202179,
2.7125,0.321808,
2.713,0.387573,
2.7135,0.384521,
2.714,0.383301,
2.7145,0.406342,
2.715,0.416718,
2.7155,0.391388,
2.716,0.325775,
2.7165,0.248108,
2.717,0.165558,
2.7175,0.063324,
2.718,-0.0186157,
2.7185,-0.0553894,
2.719,-0.0585938,
2.7195,-0.0666809,
2.72,-0.0949097,
2.7205,-0.102081,
2.721,-0.0791931,
2.7215,-0.0721741,
2.722,-0.0927734,
2.7225,-0.120544,
2.723,-0.134735,
2.7235,-0.14679,
2.724,-0.1828,
2.7245,-0.240479,
2.725,-0.262451,
2.7255,-0.234833,
2.726,-0.204926,
2.7265,-0.216064,
2.727,-0.245514,
2.7275,-0.249329,
2.728,-0.226746,
2.7285,-0.209961,
2.729,-0.221558,
2.7295,-0.237579,
2.73,-0.231323,
2.7305,-0.214996,
2.731,-0.194855,
2.7315,-0.147095,
2.732,-0.055542,
2.7325,0.0610352,
2.733,0.162506,
2.7335,0.211334,
2.734,0.222626,
2.7345,0.241089,
2.735,0.268402,
2.7355,0.279236,
2.736,0.302277,
2.7365,0.351868,
2.737,0.373535,
2.7375,0.324707,
2.738,0.23056,
2.7385,0.125732,
2.739,0.0241089,
2.7395,-0.0733948,
2.74,-0.135651,
2.7405,-0.128174,
2.741,-0.0544739,
2.7415,0.0404358,
2.742,0.124359,
2.7425,0.210571,
2.743,0.268097,
2.7435,0.247498,
2.744,0.206909,
2.7445,0.19043,
2.745,0.182648,
2.7455,0.144958,
2.746,0.0744629,
2.7465,-0.00823975,
2.747,-0.122375,
2.7475,-0.254669,
2.748,-0.337219,
2.7485,-0.348663,
2.749,-0.345764,
2.7495,-0.35141,
2.75,-0.328369,
2.7505,-0.263977,
2.751,-0.189514,
2.7515,-0.126953,
2.752,-0.0714111,
2.7525,0.0527954,
2.753,0.272522,
2.7535,0.432892,
2.754,0.388947,
2.7545,0.214691,
2.755,0.0778198,
2.7555,0.040741,
2.756,0.0801086,
2.7565,0.13916,
2.757,0.16861,
2.7575,0.152435,
2.758,0.119324,
2.7585,0.0996399,
2.759,0.0907898,
2.7595,0.0846863,
2.76,0.0828552,
2.7605,0.0828552,
2.761,0.0668335,
2.7615,0.0505066,
2.762,0.0469971,
2.7625,0.0434875,
2.763,0.0215149,
2.7635,-0.0132751,
2.764,-0.0369263,
2.7645,-0.0488281,
2.765,-0.0547791,
2.7655,-0.0556946,
2.766,-0.0563049,
2.7665,-0.0570679,
2.767,-0.0596619,
2.7675,-0.0671387,
2.768,-0.0756836,
2.7685,-0.0814819,
2.769,-0.0787354,
2.7695,-0.0662231,
2.77,-0.0500488,
2.7705,-0.0448608,
2.771,-0.0497437,
2.7715,-0.0595093,
2.772,-0.0610352,
2.7725,-0.0424194,
2.773,-0.0062561,
2.7735,0.0286865,
2.774,0.0428772,
2.7745,0.0259399,
2.775,-0.0114441,
2.7755,-0.04776,
2.776,-0.0769043,
2.7765,-0.0976563,
2.777,-0.116882,
2.7775,-0.142517,
2.778,-0.160065,
2.7785,-0.154572,
2.779,-0.143433,
2.7795,-0.130768,
2.78,-0.110321,
2.7805,-0.0927734,
2.781,-0.108185,
2.7815,-0.166779,
2.782,-0.241089,
2.7825,-0.29007,
2.783,-0.301514,
2.7835,-0.291901,
2.784,-0.267792,
2.7845,-0.235138,
2.785,-0.194855,
2.7855,-0.157471,
2.786,-0.136414,
2.7865,-0.121002,
2.787,-0.075531,
2.7875,-0.00427246,
2.788,0.0538635,
2.7885,0.107727,
2.789,0.209351,
2.7895,0.319061,
2.79,0.357666,
2.7905,0.328217,
2.791,0.26535,
2.7915,0.2005,
2.792,0.139618,
2.7925,0.0842285,
2.793,0.0379944,
2.7935,0.0125122,
2.794,0.00518799,
2.7945,0.018158,
2.795,0.0494385,
2.7955,0.100708,
2.796,0.161896,
2.7965,0.204163,
2.797,0.223999,
2.7975,0.236053,
2.798,0.262299,
2.7985,0.298615,
2.799,0.328369,
2.7995,0.333405,
2.8,0.315552,
2.8005,0.271912,
2.801,0.191193,
2.8015,0.0949097,
2.802,0,
2.8025,-0.0735474,
2.803,-0.10376,
2.8035,-0.0921631,
2.804,-0.062561,
2.8045,-0.0299072,
2.805,0.00320435,
2.8055,0.0201416,
2.806,0.0186157,
2.8065,-0.00839233,
2.807,-0.0437927,
2.8075,-0.0608826,
2.808,-0.0653076,
2.8085,-0.0978088,
2.809,-0.195007,
2.8095,-0.33844,
2.81,-0.423279,
2.8105,-0.418701,
2.811,-0.367279,
2.8115,-0.292358,
2.812,-0.193787,
2.8125,-0.0834656,
2.813,-0.0106812,
2.8135,-0.0114441,
2.814,-0.0526428,
2.8145,-0.0770569,
2.815,-0.0788879,
2.8155,-0.0744629,
2.816,-0.0506592,
2.8165,-0.0117493,
2.817,0.022583,
2.8175,0.0611877,
2.818,0.115967,
2.8185,0.159149,
2.819,0.159454,
2.8195,0.1297,
2.82,0.0920105,
2.8205,0.0546265,
2.821,0.00976563,
2.8215,-0.0326538,
2.822,-0.0788879,
2.8225,-0.148773,
2.823,-0.189819,
2.8235,-0.1828,
2.824,-0.183716,
2.8245,-0.209351,
2.825,-0.223083,
2.8255,-0.21759,
2.826,-0.179596,
2.8265,-0.093689,
2.827,-0.00244141,
2.8275,0.039978,
2.828,0.0363159,
2.8285,0.0338745,
2.829,0.0474548,
2.8295,0.0860596,
2.83,0.171814,
2.8305,0.304871,
2.831,0.385895,
2.8315,0.343323,
2.832,0.259857,
2.8325,0.208435,
2.833,0.196838,
2.8335,0.177307,
2.834,0.0914001,
2.8345,-0.0222778,
2.835,-0.112152,
2.8355,-0.166626,
2.836,-0.199585,
2.8365,-0.21225,
2.837,-0.21347,
2.8375,-0.209656,
2.838,-0.187988,
2.8385,-0.146637,
2.839,-0.0996399,
2.8395,-0.057373,
2.84,-0.0132751,
2.8405,0.0601196,
2.841,0.168304,
2.8415,0.303802,
2.842,0.431061,
2.8425,0.491638,
2.843,0.457916,
2.8435,0.355682,
2.844,0.218353,
2.8445,0.075531,
2.845,-0.0262451,
2.8455,-0.0505066,
2.846,-0.0154114,
2.8465,0.0257874,
2.847,0.0543213,
2.8475,0.0737,
2.848,0.0759888,
2.8485,0.0537109,
2.849,0.0270081,
2.8495,0.00640869,
2.85,-0.0141907,
2.8505,-0.0363159,
2.851,-0.0624084,
2.8515,-0.0854492,
2.852,-0.100861,
2.8525,-0.118866,
2.853,-0.144501,
2.8535,-0.1828,
2.854,-0.206757,
2.8545,-0.198059,
2.855,-0.17395,
2.8555,-0.150909,
2.856,-0.133514,
2.8565,-0.110931,
2.857,-0.0862122,
2.8575,-0.0695801,
2.858,-0.0564575,
2.8585,-0.0250244,
2.859,0.0186157,
2.8595,0.0602722,
2.86,0.0798035,
2.8605,0.0784302,
2.861,0.0772095,
2.8615,0.0784302,
2.862,0.0772095,
2.8625,0.0598145,
2.863,0.00610352,
2.8635,-0.0569153,
2.864,-0.110016,
2.8645,-0.157166,
2.865,-0.20752,
2.8655,-0.253143,
2.866,-0.271912,
2.8665,-0.272827,
2.867,-0.266418,
2.8675,-0.249939,
2.868,-0.217133,
2.8685,-0.174713,
2.869,-0.111237,
2.8695,-0.0315857,
2.87,0.0364685,
2.8705,0.0764465,
2.871,0.0941467,
2.8715,0.111389,
2.872,0.130157,
2.8725,0.153961,
2.873,0.196228,
2.8735,0.229645,
2.874,0.204773,
2.8745,0.135651,
2.875,0.0801086,
2.8755,0.0770569,
2.876,0.0994873,
2.8765,0.0907898,
2.877,0.0430298,
2.8775,-0.0126648,
2.878,-0.0448608,
2.8785,-0.0431824,
2.879,-0.00183105,
2.8795,0.0465393,
2.88,0.0550842,
2.8805,0.0273132,
2.881,0.0180054,
2.8815,0.0563049,
2.882,0.0920105,
2.8825,0.0610352,
2.883,-0.0218201,
2.8835,-0.102997,
2.884,-0.133362,
2.8845,-0.115509,
2.885,-0.0869751,
2.8855,-0.0593567,
2.886,-0.0161743,
2.8865,0.0260925,
2.887,0.0476074,
2.8875,0.0646973,
2.888,0.113068,
2.8885,0.170288,
2.889,0.192566,
2.8895,0.171814,
2.89,0.114899,
2.8905,0.042572,
2.891,-0.0202942,
2.8915,-0.0894165,
2.892,-0.148315,
2.8925,-0.183716,
2.893,-0.207062,
2.8935,-0.23407,
2.894,-0.26062,
2.8945,-0.266266,
2.895,-0.245209,
2.8955,-0.184174,
2.896,-0.0927734,
2.8965,-0.0149536,
2.897,0.025177,
2.8975,0.0241089,
2.898,0.0274658,
2.8985,0.0778198,
2.899,0.150757,
2.8995,0.200043,
2.9,0.202637,
2.9005,0.190582,
2.901,0.172729,
2.9015,0.10376,
2.902,-0.0257874,
2.9025,-0.181427,
2.903,-0.296936,
2.9035,-0.350494,
2.904,-0.366821,
2.9045,-0.365143,
2.905,-0.340576,
2.9055,-0.298615,
2.906,-0.236206,
2.9065,-0.139618,
2.907,0.0108337,
2.9075,0.178986,
2.908,0.31662,
2.9085,0.410767,
2.909,0.47226,
2.9095,0.540009,
2.91,0.596771,
2.9105,0.614929,
2.911,0.604553,
2.9115,0.553284,
2.912,0.436554,
2.9125,0.279846,
2.913,0.154114,
2.9135,0.0767517,
2.914,0.0180054,
2.9145,-0.0335693,
2.915,-0.0750732,
2.9155,-0.0952148,
2.916,-0.102997,
2.9165,-0.111389,
2.917,-0.11261,
2.9175,-0.105133,
2.918,-0.0923157,
2.9185,-0.0810242,
2.919,-0.0553894,
2.9195,-0.0282288,
2.92,-0.0323486,
2.9205,-0.062561,
2.921,-0.101166,
2.9215,-0.138855,
2.922,-0.174408,
2.9225,-0.198822,
2.923,-0.203094,
2.9235,-0.212402,
2.924,-0.239868,
2.9245,-0.256958,
2.925,-0.241699,
2.9255,-0.21225,
2.926,-0.195465,
2.9265,-0.191956,
2.927,-0.155792,
2.9275,-0.0793457,
2.928,-0.0180054,
2.9285,0.0370789,
2.929,0.119476,
2.9295,0.175171,
2.93,0.150604,
2.9305,0.0767517,
2.931,0.00488281,
2.9315,-0.0422668,
2.932,-0.0675964,
2.9325,-0.0694275,
2.933,-0.0338745,
2.9335,0.0317383,
2.934,0.0990295,
2.9345,0.141144,
2.935,0.142822,
2.9355,0.0985718,
2.936,0.0558472,
2.9365,0.0640869,
2.937,0.121613,
2.9375,0.171051,
2.938,0.151825,
2.9385,0.0906372,
2.939,0.0292969,
2.9395,-0.0198364,
2.94,-0.0445557,
2.9405,-0.0517273,
2.941,-0.0578308,
2.9415,-0.0740051,
2.942,-0.0939941,
2.9425,-0.0895691,
2.943,-0.0572205,
2.9435,-0.0267029,
2.944,-0.0012207,
2.9445,0.0175476,
2.945,0.015564,
2.9455,-0.0204468,
2.946,-0.0663757,
2.9465,-0.0767517,
2.947,-0.0428772,
2.9475,-0.00778198,
2.948,-0.00976563,
2.9485,-0.0233459,
2.949,-0.0102234,
2.9495,0.00411987,
2.95,-0.0175476,
2.9505,-0.0550842,
2.951,-0.0645447,
2.9515,-0.0442505,
2.952,-0.00991821,
2.9525,0.0210571,
2.953,0.0134277,
2.9535,-0.00961304,
2.954,-0.0254822,
2.9545,-0.0254822,
2.955,-0.0288391,
2.9555,-0.0454712,
2.956,-0.0613403,
2.9565,-0.0744629,
2.957,-0.0843811,
2.9575,-0.09552,
2.958,-0.105438,
2.9585,-0.106201,
2.959,-0.0967407,
2.9595,-0.0724792,
2.96,-0.0260925,
2.9605,0.0360107,
2.961,0.0987244,
2.9615,0.117645,
2.962,0.0563049,
2.9625,-0.0531006,
2.963,-0.150452,
2.9635,-0.201721,
2.964,-0.204926,
2.9645,-0.199738,
2.965,-0.20813,
2.9655,-0.207825,
2.966,-0.170593,
2.9665,-0.0982666,
2.967,-0.0328064,
2.9675,-0.00427246,
2.968,0.0102234,
2.9685,0.0309753,
2.969,0.0709534,
2.9695,0.158234,
2.97,0.265961,
2.9705,0.30426,
2.971,0.244598,
2.9715,0.149078,
2.972,0.0817871,
2.9725,0.0666809,
2.973,0.0994873,
2.9735,0.150909,
2.974,0.191345,
2.9745,0.198669,
2.975,0.18631,
2.9755,0.158691,
2.976,0.167236,
2.9765,0.286102,
2.977,0.42572,
2.9775,0.432434,
2.978,0.331116,
2.9785,0.232849,
2.979,0.145569,
2.9795,0.0106812,
2.98,-0.138245,
2.9805,-0.230713,
2.981,-0.276031,
2.9815,-0.31311,
2.982,-0.351715,
2.9825,-0.379181,
2.983,-0.386047,
2.9835,-0.361938,
2.984,-0.312347,
2.9845,-0.252075,
2.985,-0.189972,
2.9855,-0.124359,
2.986,-0.0424194,
2.9865,0.0856018,
2.987,0.263062,
2.9875,0.431824,
2.988,0.487518,
2.9885,0.396118,
2.989,0.239868,
2.9895,0.116577,
2.99,0.071106,
2.9905,0.0997925,
2.991,0.143585,
2.9915,0.132141,
2.992,0.0601196,
2.9925,-0.0234985,
2.993,-0.121307,
2.9935,-0.227051,
2.994,-0.262451,
2.9945,-0.219269,
2.995,-0.163116,
2.9955,-0.136414,
2.996,-0.142975,
2.9965,-0.154419,
2.997,-0.137482,
2.9975,-0.100708,
2.998,-0.0828552,
2.9985,-0.103455,
2.999,-0.112305,
2.9995,-0.0653076,
3,0.0248718,
3.0005,0.12619,
3.001,0.222778,
3.0015,0.290222,
3.002,0.299225,
3.0025,0.224915,
3.003,0.111847,
3.0035,0.0749207,
3.004,0.12146,
3.0045,0.118408,
3.005,0.0369263,
3.0055,-0.0117493,
3.006,0.0038147,
3.0065,0.0262451,
3.007,0.0259399,
3.0075,0.00579834,
3.008,-0.0215149,
3.0085,-0.0366211,
3.009,-0.0282288,
3.0095,-0.0175476,
3.01,-0.0213623,
3.0105,-0.0108337,
3.011,0.000457764,
3.0115,0.00320435,
3.012,0.0189209,
3.0125,0.0430298,
3.013,0.0619507,
3.0135,0.0732422,
3.014,0.0698853,
3.0145,0.0627136,
3.015,0.0527954,
3.0155,0.0401306,
3.016,0.0227356,
3.0165,0.0149536,
3.017,0.00946045,
3.0175,-0.0111389,
3.018,-0.0273132,
3.0185,-0.0396729,
3.019,-0.0602722,
3.0195,-0.0747681,
3.02,-0.0752258,
3.0205,-0.071106,
3.021,-0.0679016,
3.0215,-0.0761414,
3.022,-0.0801086,
3.0225,-0.0805664,
3.023,-0.0875854,
3.0235,-0.102081,
3.024,-0.114136,
3.0245,-0.131683,
3.025,-0.14801,
3.0255,-0.154114,
3.026,-0.160065,
3.0265,-0.179138,
3.027,-0.220947,
3.0275,-0.272522,
3.028,-0.301971,
3.0285,-0.29892,
3.029,-0.290375,
3.0295,-0.287018,
3.03,-0.281982,
3.0305,-0.270691,
3.031,-0.262451,
3.0315,-0.240326,
3.032,-0.168457,
3.0325,-0.0692749,
3.033,-0.010376,
3.0335,0.00732422,
3.034,0.0538635,
3.0345,0.163574,
3.035,0.272827,
3.0355,0.316162,
3.036,0.235748,
3.0365,0.0328064,
3.037,-0.161438,
3.0375,-0.25528,
3.038,-0.296783,
3.0385,-0.344543,
3.039,-0.366211,
3.0395,-0.323944,
3.04,-0.245361,
3.0405,-0.1828,
3.041,-0.153046,
3.0415,-0.129089,
3.042,-0.0860596,
3.0425,0.00198364,
3.043,0.170441,
3.0435,0.442352,
3.044,0.767822,
3.0445,0.985107,
3.045,1.01334,
3.0455,0.953369,
3.046,0.834198,
3.0465,0.633545,
3.047,0.447998,
3.0475,0.414276,
3.048,0.419769,
3.0485,0.270538,
3.049,0.050354,
3.0495,-0.0497437,
3.05,-0.0442505,
3.0505,-0.0228882,
3.051,0.012207,
3.0515,0.0509644,
3.052,0.0521851,
3.0525,0.0259399,
3.053,0.0132751,
3.0535,0.0108337,
3.054,-0.00198364,
3.0545,-0.0236511,
3.055,-0.0431824,
3.0555,-0.0231934,
3.056,0.032196,
3.0565,0.0508118,
3.057,0.00701904,
3.0575,-0.0524902,
3.058,-0.0691223,
3.0585,-0.0584412,
3.059,-0.0668335,
3.0595,-0.0880432,
3.06,-0.0949097,
3.0605,-0.0761414,
3.061,-0.0747681,
3.0615,-0.132751,
3.062,-0.230713,
3.0625,-0.335999,
3.063,-0.40451,
3.0635,-0.42923,
3.064,-0.426788,
3.0645,-0.406189,
3.065,-0.364838,
3.0655,-0.295105,
3.066,-0.210571,
3.0665,-0.168457,
3.067,-0.16983,
3.0675,-0.165253,
3.068,-0.0984192,
3.0685,0.0650024,
3.069,0.26413,
3.0695,0.413208,
3.07,0.462189,
3.0705,0.378723,
3.071,0.199738,
3.0715,0.00427246,
3.072,-0.161743,
3.0725,-0.256653,
3.073,-0.283356,
3.0735,-0.296631,
3.074,-0.311279,
3.0745,-0.312958,
3.075,-0.301361,
3.0755,-0.256042,
3.076,-0.155029,
3.0765,-0.0212097,
3.077,0.0820923,
3.0775,0.136108,
3.078,0.168457,
3.0785,0.22583,
3.079,0.303345,
3.0795,0.335083,
3.08,0.32074,
3.0805,0.31662,
3.081,0.323486,
3.0815,0.293427,
3.082,0.198364,
3.0825,0.0575256,
3.083,-0.0576782,
3.0835,-0.0901794,
3.084,-0.0761414,
3.0845,-0.0712585,
3.085,-0.098114,
3.0855,-0.133667,
3.086,-0.146942,
3.0865,-0.169067,
3.087,-0.265961,
3.0875,-0.447083,
3.088,-0.59082,
3.0885,-0.632629,
3.089,-0.610657,
3.0895,-0.574036,
3.09,-0.559998,
3.0905,-0.533295,
3.091,-0.445251,
3.0915,-0.314484,
3.092,-0.166779,
3.0925,-0.0212097,
3.093,0.123444,
3.0935,0.273438,
3.094,0.434723,
3.0945,0.581207,
3.095,0.718536,
3.0955,0.810547,
3.096,0.826569,
3.0965,0.785675,
3.097,0.714722,
3.0975,0.603943,
3.098,0.44754,
3.0985,0.295105,
3.099,0.175018,
3.0995,0.0671387,
3.1,-0.020752,
3.1005,-0.0906372,
3.101,-0.137177,
3.1015,-0.152588,
3.102,-0.0952148,
3.1025,0.010376,
3.103,0.0889587,
3.1035,0.116272,
3.104,0.127106,
3.1045,0.140991,
3.105,0.122375,
3.1055,0.068512,
3.106,0.0508118,
3.1065,0.0961304,
3.107,0.116272,
3.1075,0.0569153,
3.108,-0.0219727,
3.1085,-0.0595093,
3.109,-0.0746155,
3.1095,-0.0968933,
3.11,-0.110931,
3.1105,-0.106659,
3.111,-0.0996399,
3.1115,-0.0970459,
3.112,-0.0933838,
3.1125,-0.115509,
3.113,-0.164795,
3.1135,-0.189514,
3.114,-0.187073,
3.1145,-0.184326,
3.115,-0.180054,
3.1155,-0.159454,
3.116,-0.124969,
3.1165,-0.0976563,
3.117,-0.0801086,
3.1175,-0.0570679,
3.118,0.00549316,
3.1185,0.068512,
3.119,0.090332,
3.1195,0.105743,
3.12,0.118866,
3.1205,0.0961304,
3.121,0.0465393,
3.1215,-0.0144958,
3.122,-0.0770569,
3.1225,-0.111237,
3.123,-0.109711,
3.1235,-0.104523,
3.124,-0.119171,
3.1245,-0.159302,
3.125,-0.198212,
3.1255,-0.218201,
3.126,-0.225067,
3.1265,-0.217896,
3.127,-0.19928,
3.1275,-0.170746,
3.128,-0.139465,
3.1285,-0.117645,
3.129,-0.102386,
3.1295,-0.0744629,
3.13,-0.0215149,
3.1305,0.0552368,
3.131,0.126038,
3.1315,0.165558,
3.132,0.185089,
3.1325,0.222168,
3.133,0.261993,
3.1335,0.275116,
3.134,0.252991,
3.1345,0.200043,
3.135,0.140076,
3.1355,0.102539,
3.136,0.0654602,
3.1365,0.0050354,
3.137,-0.0543213,
3.1375,-0.0814819,
3.138,-0.0875854,
3.1385,-0.09552,
3.139,-0.0994873,
3.1395,-0.0906372,
3.14,-0.0793457,
3.1405,-0.0743103,
3.141,-0.068512,
3.1415,-0.0492859,
3.142,-0.015564,
3.1425,0.0111389,
3.143,0.00106812,
3.1435,-0.0361633,
3.144,-0.0524902,
3.1445,-0.035553,
3.145,-0.0230408,
3.1455,-0.0434875,
3.146,-0.0741577,
3.1465,-0.0845337,
3.147,-0.0848389,
3.1475,-0.0801086,
3.148,-0.0617981,
3.1485,-0.0436401,
3.149,-0.0398254,
3.1495,-0.040741,
3.15,-0.0398254,
3.1505,-0.0468445,
3.151,-0.063324,
3.1515,-0.0672913,
3.152,-0.04776,
3.1525,-0.0234985,
3.153,-0.0137329,
3.1535,-0.0151062,
3.154,-0.00915527,
3.1545,0.0117493,
3.155,0.0152588,
3.1555,-0.00183105,
3.156,-0.00305176,
3.1565,0.0242615,
3.157,0.0430298,
3.1575,0.0270081,
3.158,0.0038147,
3.1585,-0.0141907,
3.159,-0.0486755,
3.1595,-0.0941467,
3.16,-0.105133,
3.1605,-0.050354,
3.161,0.0221252,
3.1615,0.0454712,
3.162,0.070343,
3.1625,0.150604,
3.163,0.222321,
3.1635,0.200653,
3.164,0.129089,
3.1645,0.0901794,
3.165,0.0776672,
3.1655,0.0758362,
3.166,0.0553894,
3.1665,-0.0253296,
3.167,-0.151825,
3.1675,-0.268402,
3.168,-0.354462,
3.1685,-0.374298,
3.169,-0.288696,
3.1695,-0.176697,
3.17,-0.145874,
3.1705,-0.136719,
3.171,-0.0300598,
3.1715,0.171204,
3.172,0.363922,
3.1725,0.453339,
3.173,0.410614,
