0,-0.0352478,
0.0005,-0.0334167,
0.001,-0.0309753,
0.0015,-0.0291443,
0.002,-0.0282288,
0.0025,-0.0247192,
0.003,-0.0190735,
0.0035,-0.0106812,
0.004,-0.000152588,
0.0045,0.00610352,
0.005,0.00732422,
0.0055,0.00564575,
0.006,0.00198364,
0.0065,-0.00228882,
0.007,-0.00396729,
0.0075,-0.00579834,
0.008,-0.00854492,
0.0085,-0.0102234,
0.009,-0.0106812,
0.0095,-0.0117493,
0.01,-0.014801,
0.0105,-0.0172424,
0.011,-0.0183105,
0.0115,-0.0189209,
0.012,-0.0213623,
0.0125,-0.0201416,
0.013,-0.0196838,
0.0135,-0.0257874,
0.014,-0.0299072,
0.0145,-0.0209045,
0.015,-0.0038147,
0.0155,0.00839233,
0.016,0.0105286,
0.0165,0.00747681,
0.017,0.000610352,
0.0175,-0.00579834,
0.018,-0.0123596,
0.0185,-0.0177002,
0.019,-0.0201416,
0.0195,-0.0158691,
0.02,-0.00488281,
0.0205,0.00427246,
0.021,0.00137329,
0.0215,-0.0120544,
0.022,-0.0167847,
0.0225,-0.0172424,
0.023,-0.0180054,
0.0235,-0.015564,
0.024,-0.0111389,
0.0245,-0.00900269,
0.025,-0.00701904,
0.0255,-0.00930786,
0.026,-0.0167847,
0.0265,-0.0189209,
0.027,-0.0115967,
0.0275,-0.000915527,
0.028,0.00640869,
0.0285,0.012207,
0.029,0.0152588,
0.0295,0.00915527,
0.03,-0.00228882,
0.0305,-0.0111389,
0.031,-0.012207,
0.0315,-0.00869751,
0.032,-0.00854492,
0.0325,-0.012207,
0.033,-0.0137329,
0.0335,-0.00854492,
0.034,-0.00579834,
0.0345,-0.00656128,
0.035,-0.0100708,
0.0355,-0.0146484,
0.036,-0.0195313,
0.0365,-0.0280762,
0.037,-0.0382996,
0.0375,-0.039978,
0.038,-0.0372314,
0.0385,-0.0376892,
0.039,-0.0360107,
0.0395,-0.0256348,
0.04,-0.00976563,
0.0405,0.0062561,
0.041,0.0177002,
0.0415,0.0286865,
0.042,0.0354004,
0.0425,0.0390625,
0.043,0.0447083,
0.0435,0.0488281,
0.044,0.0497437,
0.0445,0.0444031,
0.045,0.0376892,
0.0455,0.0282288,
0.046,0.0195313,
0.0465,0.0114441,
0.047,0.0112915,
0.0475,0.0163269,
0.048,0.022583,
0.0485,0.0253296,
0.049,0.0224304,
0.0495,0.0187683,
0.05,0.0146484,
0.0505,0.00732422,
0.051,-0.000457764,
0.0515,-0.00579834,
0.052,-0.00671387,
0.0525,-0.00717163,
0.053,-0.00564575,
0.0535,-0.00167847,
0.054,0.00106812,
0.0545,-0.00320435,
0.055,-0.00762939,
0.0555,-0.00671387,
0.056,-0.00396729,
0.0565,-0.00488281,
0.057,-0.00579834,
0.0575,-0.00808716,
0.058,-0.0111389,
0.0585,-0.00686646,
0.059,-0.00137329,
0.0595,-0.0012207,
0.06,-0.00259399,
0.0605,-0.00442505,
0.061,-0.00778198,
0.0615,-0.0119019,
0.062,-0.0183105,
0.0625,-0.0253296,
0.063,-0.0349426,
0.0635,-0.0422668,
0.064,-0.0421143,
0.0645,-0.0369263,
0.065,-0.0337219,
0.0655,-0.0292969,
0.066,-0.0228882,
0.0665,-0.0190735,
0.067,-0.0125122,
0.0675,0.00335693,
0.068,0.0238037,
0.0685,0.04776,
0.069,0.0741577,
0.0695,0.0868225,
0.07,0.0752258,
0.0705,0.0498962,
0.071,0.0245667,
0.0715,0.0132751,
0.072,0.014801,
0.0725,0.0105286,
0.073,-0.0038147,
0.0735,-0.0105286,
0.074,-0.00854492,
0.0745,-0.0088501,
0.075,-0.0126648,
0.0755,-0.0112915,
0.076,0.000305176,
0.0765,0.0178528,
0.077,0.0247192,
0.0775,0.0151062,
0.078,-0.00274658,
0.0785,-0.0128174,
0.079,-0.015564,
0.0795,-0.0117493,
0.08,0.00610352,
0.0805,0.0358582,
0.081,0.0512695,
0.0815,0.0456238,
0.082,0.0350952,
0.0825,0.018158,
0.083,-0.00534058,
0.0835,-0.0215149,
0.084,-0.0228882,
0.0845,-0.0216675,
0.085,-0.0215149,
0.0855,-0.0190735,
0.086,-0.0126648,
0.0865,-0.0126648,
0.087,-0.012207,
0.0875,-0.00778198,
0.088,-0.000610352,
0.0885,0.00152588,
0.089,0.00152588,
0.0895,0.000457764,
0.09,0.00167847,
0.0905,0.00671387,
0.091,0.0119019,
0.0915,0.012207,
0.092,0.0138855,
0.0925,0.0146484,
0.093,0.0138855,
0.0935,0.0138855,
0.094,0.00900269,
0.0945,0.000762939,
0.095,-0.00396729,
0.0955,-0.00427246,
0.096,-0.00350952,
0.0965,-0.00320435,
0.097,-0.00869751,
0.0975,-0.0209045,
0.098,-0.0267029,
0.0985,-0.0265503,
0.099,-0.0268555,
0.0995,-0.0276184,
0.1,-0.0242615,
0.1005,-0.0189209,
0.101,-0.0186157,
0.1015,-0.022583,
0.102,-0.0187683,
0.1025,-0.00778198,
0.103,0.00335693,
0.1035,0.00930786,
0.104,0.00747681,
0.1045,0.000457764,
0.105,-0.00900269,
0.1055,-0.0166321,
0.106,-0.0212097,
0.1065,-0.019989,
0.107,-0.0172424,
0.1075,-0.0112915,
0.108,-0.0012207,
0.1085,0.00457764,
0.109,-0.000610352,
0.1095,-0.00869751,
0.11,-0.00869751,
0.1105,-0.00427246,
0.111,-0.000762939,
0.1115,-0.00228882,
0.112,-0.00732422,
0.1125,-0.00717163,
0.113,0,
0.1135,0.012207,
0.114,0.0215149,
0.1145,0.0149536,
0.115,-0.00167847,
0.1155,-0.0115967,
0.116,-0.0195313,
0.1165,-0.0285339,
0.117,-0.0337219,
0.1175,-0.0370789,
0.118,-0.0357056,
0.1185,-0.0291443,
0.119,-0.0279236,
0.1195,-0.0212097,
0.12,-0.00457764,
0.1205,0.0132751,
0.121,0.0215149,
0.1215,0.0259399,
0.122,0.0338745,
0.1225,0.0434875,
0.123,0.0396729,
0.1235,0.0192261,
0.124,0.00183105,
0.1245,-0.000762939,
0.125,0.00640869,
0.1255,0.0120544,
0.126,0.0100708,
0.1265,0.00518799,
0.127,0.00457764,
0.1275,0.00244141,
0.128,-0.00213623,
0.1285,-0.00534058,
0.129,-0.00228882,
0.1295,0.00167847,
0.13,0.0119019,
0.1305,0.0238037,
0.131,0.025177,
0.1315,0.0152588,
0.132,0.00350952,
0.1325,-0.00198364,
0.133,-0.00549316,
0.1335,-0.00900269,
0.134,-0.00823975,
0.1345,-0.00732422,
0.135,-0.0126648,
0.1355,-0.0178528,
0.136,-0.0177002,
0.1365,-0.0172424,
0.137,-0.0212097,
0.1375,-0.0231934,
0.138,-0.0195313,
0.1385,-0.0143433,
0.139,-0.0088501,
0.1395,-0.00518799,
0.14,-0.00106812,
0.1405,0.00366211,
0.141,0.00244141,
0.1415,-0.00350952,
0.142,-0.00244141,
0.1425,0.00869751,
0.143,0.0201416,
0.1435,0.0285339,
0.144,0.0308228,
0.1445,0.0262451,
0.145,0.0154114,
0.1455,0.00732422,
0.146,-0.000152588,
0.1465,-0.00930786,
0.147,-0.0152588,
0.1475,-0.0189209,
0.148,-0.0190735,
0.1485,-0.0183105,
0.149,-0.0180054,
0.1495,-0.0239563,
0.15,-0.0299072,
0.1505,-0.0309753,
0.151,-0.0233459,
0.1515,-0.0161743,
0.152,-0.0137329,
0.1525,-0.00946045,
0.153,-0.00320435,
0.1535,0.000762939,
0.154,0.00259399,
0.1545,0.00289917,
0.155,0.00640869,
0.1555,0.0161743,
0.156,0.0222778,
0.1565,0.019989,
0.157,0.0137329,
0.1575,0.0112915,
0.158,0.00671387,
0.1585,-0.00442505,
0.159,-0.0158691,
0.1595,-0.0238037,
0.16,-0.0282288,
0.1605,-0.0276184,
0.161,-0.0271606,
0.1615,-0.0300598,
0.162,-0.0346375,
0.1625,-0.0335693,
0.163,-0.0238037,
0.1635,-0.010376,
0.164,0.0112915,
0.1645,0.0305176,
0.165,0.0270081,
0.1655,0.00839233,
0.166,-0.00396729,
0.1665,-0.00396729,
0.167,0.00778198,
0.1675,0.0209045,
0.168,0.0222778,
0.1685,0.0138855,
0.169,0.00457764,
0.1695,-0.00473022,
0.17,-0.0105286,
0.1705,-0.0152588,
0.171,-0.0163269,
0.1715,-0.00976563,
0.172,0.00335693,
0.1725,0.0152588,
0.173,0.015564,
0.1735,0.00320435,
0.174,-0.010376,
0.1745,-0.0201416,
0.175,-0.0254822,
0.1755,-0.022583,
0.176,-0.0178528,
0.1765,-0.0196838,
0.177,-0.0292969,
0.1775,-0.0334167,
0.178,-0.0282288,
0.1785,-0.0193787,
0.179,-0.00610352,
0.1795,0.00411987,
0.18,0.00213623,
0.1805,-0.00549316,
0.181,-0.00595093,
0.1815,-0.00305176,
0.182,0,
0.1825,0.0012207,
0.183,-0.000915527,
0.1835,-0.0038147,
0.184,-0.0111389,
0.1845,-0.0201416,
0.185,-0.0190735,
0.1855,-0.0115967,
0.186,-0.0106812,
0.1865,-0.0230408,
0.187,-0.0402832,
0.1875,-0.0474548,
0.188,-0.0405884,
0.1885,-0.0299072,
0.189,-0.0242615,
0.1895,-0.0160217,
0.19,0.00793457,
0.1905,0.0485229,
0.191,0.0918579,
0.1915,0.105896,
0.192,0.078125,
0.1925,0.0326538,
0.193,-0.0062561,
0.1935,-0.0344849,
0.194,-0.0454712,
0.1945,-0.0320435,
0.195,-0.00289917,
0.1955,0.0166321,
0.196,0.0140381,
0.1965,0.00366211,
0.197,0.00289917,
0.1975,0.0140381,
0.198,0.0167847,
0.1985,0.00274658,
0.199,-0.0123596,
0.1995,-0.0152588,
0.2,-0.00656128,
0.2005,0.0119019,
0.201,0.0382996,
0.2015,0.0570679,
0.202,0.0601196,
0.2025,0.0598145,
0.203,0.0608826,
0.2035,0.0621033,
0.204,0.0611877,
0.2045,0.0517273,
0.205,0.0341797,
0.2055,0.0157166,
0.206,0.000305176,
0.2065,-0.01297,
0.207,-0.0250244,
0.2075,-0.0285339,
0.208,-0.0190735,
0.2085,-0.00717163,
0.209,-0.00564575,
0.2095,-0.00610352,
0.21,-0.00350952,
0.2105,-0.00137329,
0.211,-0.00213623,
0.2115,-0.00305176,
0.212,-0.00305176,
0.2125,-0.00930786,
0.213,-0.0189209,
0.2135,-0.0178528,
0.214,-0.00518799,
0.2145,-0.000762939,
0.215,-0.00930786,
0.2155,-0.0195313,
0.216,-0.0253296,
0.2165,-0.0260925,
0.217,-0.0268555,
0.2175,-0.0250244,
0.218,-0.0198364,
0.2185,-0.0154114,
0.219,-0.0143433,
0.2195,-0.0177002,
0.22,-0.019989,
0.2205,-0.0189209,
0.221,-0.0193787,
0.2215,-0.0177002,
0.222,-0.0170898,
0.2225,-0.0178528,
0.223,-0.0157166,
0.2235,-0.0126648,
0.224,-0.0123596,
0.2245,-0.0117493,
0.225,-0.00976563,
0.2255,-0.00869751,
0.226,-0.0105286,
0.2265,-0.0102234,
0.227,-0.00869751,
0.2275,-0.00930786,
0.228,-0.0128174,
0.2285,-0.0137329,
0.229,-0.00946045,
0.2295,-0.0050354,
0.23,-0.0012207,
0.2305,0,
0.231,-0.00183105,
0.2315,-0.00305176,
0.232,-0.00442505,
0.2325,-0.00808716,
0.233,-0.0100708,
0.2335,-0.00457764,
0.234,0.0111389,
0.2345,0.0256348,
0.235,0.0260925,
0.2355,0.0152588,
0.236,0.00747681,
0.2365,0.00213623,
0.237,-0.000457764,
0.2375,-0.00305176,
0.238,-0.00762939,
0.2385,-0.0112915,
0.239,-0.00946045,
0.2395,-0.00411987,
0.24,0,
0.2405,0.00350952,
0.241,0.00610352,
0.2415,0.0050354,
0.242,0.00198364,
0.2425,-0.0012207,
0.243,-0.010376,
0.2435,-0.017395,
0.244,-0.0128174,
0.2445,-0.00274658,
0.245,0.00259399,
0.2455,-0.000915527,
0.246,-0.00808716,
0.2465,-0.01297,
0.247,-0.0222778,
0.2475,-0.0282288,
0.248,-0.0230408,
0.2485,-0.0114441,
0.249,-0.00854492,
0.2495,-0.0125122,
0.25,-0.0144958,
0.2505,-0.0187683,
0.251,-0.0244141,
0.2515,-0.0245667,
0.252,-0.0224304,
0.2525,-0.0209045,
0.253,-0.0164795,
0.2535,-0.0102234,
0.254,-0.00335693,
0.2545,0.00686646,
0.255,0.0193787,
0.2555,0.027771,
0.256,0.0306702,
0.2565,0.0299072,
0.257,0.025177,
0.2575,0.0222778,
0.258,0.0213623,
0.2585,0.0233459,
0.259,0.0265503,
0.2595,0.0305176,
0.26,0.0312805,
0.2605,0.0263977,
0.261,0.0201416,
0.2615,0.0157166,
0.262,0.0105286,
0.2625,0.00610352,
0.263,0.00350952,
0.2635,0.00183105,
0.264,0.000610352,
0.2645,-0.00274658,
0.265,-0.00488281,
0.2655,-0.00427246,
0.266,-0.00488281,
0.2665,-0.00549316,
0.267,-0.00442505,
0.2675,-0.00854492,
0.268,-0.0115967,
0.2685,-0.0105286,
0.269,-0.0100708,
0.2695,-0.0154114,
0.27,-0.0190735,
0.2705,-0.0202942,
0.271,-0.0152588,
0.2715,-0.0117493,
0.272,-0.0192261,
0.2725,-0.0340271,
0.273,-0.032959,
0.2735,-0.0177002,
0.274,-0.00839233,
0.2745,-0.0132751,
0.275,-0.0175476,
0.2755,-0.00473022,
0.276,0.0126648,
0.2765,0.0180054,
0.277,0.0157166,
0.2775,0.018158,
0.278,0.0213623,
0.2785,0.0196838,
0.279,0.00640869,
0.2795,-0.0164795,
0.28,-0.0389099,
0.2805,-0.0492859,
0.281,-0.0363159,
0.2815,-0.00961304,
0.282,0.00869751,
0.2825,0.0152588,
0.283,0.0212097,
0.2835,0.0274658,
0.284,0.0289917,
0.2845,0.0273132,
0.285,0.0202942,
0.2855,0.0143433,
0.286,0.0141907,
0.2865,0.0119019,
0.287,0.00457764,
0.2875,-0.00350952,
0.288,-0.0146484,
0.2885,-0.0282288,
0.289,-0.0296021,
0.2895,-0.0132751,
0.29,0.00793457,
0.2905,0.0271606,
0.291,0.0337219,
0.2915,0.0254822,
0.292,0.0100708,
0.2925,0.000457764,
0.293,-0.000457764,
0.2935,0.000915527,
0.294,-0.00335693,
0.2945,-0.012207,
0.295,-0.0204468,
0.2955,-0.0315857,
0.296,-0.0411987,
0.2965,-0.04776,
0.297,-0.0466919,
0.2975,-0.0379944,
0.298,-0.0248718,
0.2985,-0.0100708,
0.299,-0.00488281,
0.2995,-0.00900269,
0.3,-0.0038147,
0.3005,0.012207,
0.301,0.0247192,
0.3015,0.0274658,
0.302,0.0215149,
0.3025,0.0126648,
0.303,0.00427246,
0.3035,0.000457764,
0.304,0.00518799,
0.3045,0.0137329,
0.305,0.015564,
0.3055,0.0119019,
0.306,0.00869751,
0.3065,0.0132751,
0.307,0.0268555,
0.3075,0.03479,
0.308,0.0212097,
0.3085,0.000305176,
0.309,-0.0128174,
0.3095,-0.0120544,
0.31,-0.00320435,
0.3105,0.00640869,
0.311,0.00900269,
0.3115,0.00823975,
0.312,0.00305176,
0.3125,-0.00366211,
0.313,-0.00701904,
0.3135,-0.00823975,
0.314,-0.00808716,
0.3145,-0.00701904,
0.315,-0.0038147,
0.3155,-0.000610352,
0.316,-0.0012207,
0.3165,-0.00778198,
0.317,-0.00915527,
0.3175,-0.0038147,
0.318,-0.00320435,
0.3185,-0.0149536,
0.319,-0.0274658,
0.3195,-0.0314331,
0.32,-0.0247192,
0.3205,-0.0170898,
0.321,-0.0111389,
0.3215,-0.00869751,
0.322,-0.00839233,
0.3225,-0.00564575,
0.323,-0.000457764,
0.3235,0.00671387,
0.324,0.0105286,
0.3245,0.0100708,
0.325,0.00701904,
0.3255,0.00488281,
0.326,0.00137329,
0.3265,-0.0012207,
0.327,-0.00320435,
0.3275,-0.00427246,
0.328,-0.00305176,
0.3285,-0.00167847,
0.329,-0.00198364,
0.3295,-0.000457764,
0.33,0.00473022,
0.3305,0.0117493,
0.331,0.0141907,
0.3315,0.0117493,
0.332,0.00244141,
0.3325,-0.00778198,
0.333,-0.0106812,
0.3335,-0.0108337,
0.334,-0.00839233,
0.3345,-0.00244141,
0.335,0.00183105,
0.3355,0.00747681,
0.336,0.00915527,
0.3365,0.00427246,
0.337,-0.00183105,
0.3375,-0.00488281,
0.338,-0.00579834,
0.3385,-0.00808716,
0.339,-0.0149536,
0.3395,-0.0231934,
0.34,-0.0305176,
0.3405,-0.0379944,
0.341,-0.0389099,
0.3415,-0.0296021,
0.342,-0.0140381,
0.3425,-0.00213623,
0.343,0.00183105,
0.3435,-0.000457764,
0.344,0.00549316,
0.3445,0.0216675,
0.345,0.0297546,
0.3455,0.0238037,
0.346,0.015564,
0.3465,0.00869751,
0.347,0.00244141,
0.3475,0.000915527,
0.348,-0.00106812,
0.3485,-0.00762939,
0.349,-0.0128174,
0.3495,-0.0114441,
0.35,-0.00808716,
0.3505,-0.0038147,
0.351,-0.00244141,
0.3515,-0.00701904,
0.352,-0.0169373,
0.3525,-0.0247192,
0.353,-0.0285339,
0.3535,-0.0337219,
0.354,-0.0387573,
0.3545,-0.0416565,
0.355,-0.0421143,
0.3555,-0.0361633,
0.356,-0.0205994,
0.3565,0.00259399,
0.357,0.0288391,
0.3575,0.0405884,
0.358,0.0428772,
0.3585,0.0489807,
0.359,0.0512695,
0.3595,0.0401306,
0.36,0.0186157,
0.3605,0.00350952,
0.361,-0.00335693,
0.3615,-0.00778198,
0.362,-0.0109863,
0.3625,-0.0141907,
0.363,-0.0154114,
0.3635,-0.0144958,
0.364,-0.017395,
0.3645,-0.018158,
0.365,-0.0218201,
0.3655,-0.0244141,
0.366,-0.0241089,
0.3665,-0.0157166,
0.367,-0.00305176,
0.3675,0.0119019,
0.368,0.0157166,
0.3685,0.00854492,
0.369,0.00320435,
0.3695,0.00305176,
0.37,0.00366211,
0.3705,0.000305176,
0.371,-0.00473022,
0.3715,-0.0100708,
0.372,-0.0100708,
0.3725,-0.00534058,
0.373,-0.00579834,
0.3735,-0.00976563,
0.374,-0.0126648,
0.3745,-0.0166321,
0.375,-0.0195313,
0.3755,-0.01297,
0.376,-0.00244141,
0.3765,0.00152588,
0.377,0.00183105,
0.3775,0.0114441,
0.378,0.0224304,
0.3785,0.0213623,
0.379,0.00808716,
0.3795,-0.0108337,
0.38,-0.01297,
0.3805,0.0109863,
0.381,0.0367737,
0.3815,0.0369263,
0.382,0.0141907,
0.3825,-0.0125122,
0.383,-0.0244141,
0.3835,-0.0228882,
0.384,-0.0180054,
0.3845,-0.0231934,
0.385,-0.03479,
0.3855,-0.03479,
0.386,-0.0256348,
0.3865,-0.00839233,
0.387,0.0062561,
0.3875,0.0123596,
0.388,0.0135803,
0.3885,0.0178528,
0.389,0.0215149,
0.3895,0.0294495,
0.39,0.0367737,
0.3905,0.0431824,
0.391,0.0505066,
0.3915,0.0517273,
0.392,0.0448608,
0.3925,0.0335693,
0.393,0.0215149,
0.3935,0.00320435,
0.394,-0.0236511,
0.3945,-0.0532532,
0.395,-0.0682068,
0.3955,-0.0543213,
0.396,-0.0282288,
0.3965,-0.00671387,
0.397,0.0120544,
0.3975,0.0239563,
0.398,0.0192261,
0.3985,0.00732422,
0.399,-0.00289917,
0.3995,-0.00610352,
0.4,-0.00473022,
0.4005,0.000152588,
0.401,0.00289917,
0.4015,0.000457764,
0.402,-0.012207,
0.4025,-0.0268555,
0.403,-0.0395203,
0.4035,-0.0518799,
0.404,-0.0653076,
0.4045,-0.0788879,
0.405,-0.0933838,
0.4055,-0.102539,
0.406,-0.0979614,
0.4065,-0.0630188,
0.407,-0.00778198,
0.4075,0.0424194,
0.408,0.0735474,
0.4085,0.0834656,
0.409,0.0770569,
0.4095,0.0590515,
0.41,0.0402832,
0.4105,0.0294495,
0.411,0.0291443,
0.4115,0.0317383,
0.412,0.0228882,
0.4125,0.00961304,
0.413,0.00244141,
0.4135,0.00228882,
0.414,0.0157166,
0.4145,0.0476074,
0.415,0.0790405,
0.4155,0.0906372,
0.416,0.085907,
0.4165,0.0701904,
0.417,0.0442505,
0.4175,0.0149536,
0.418,-0.00686646,
0.4185,-0.0163269,
0.419,-0.0180054,
0.4195,-0.0256348,
0.42,-0.037384,
0.4205,-0.0447083,
0.421,-0.0482178,
0.4215,-0.0447083,
0.422,-0.0260925,
0.4225,-0.000610352,
0.423,0.0189209,
0.4235,0.0231934,
0.424,0.0160217,
0.4245,0.00167847,
0.425,-0.00961304,
0.4255,-0.00915527,
0.426,0.000457764,
0.4265,0.00946045,
0.427,0.00930786,
0.4275,-0.000457764,
0.428,-0.0126648,
0.4285,-0.0212097,
0.429,-0.0259399,
0.4295,-0.0337219,
0.43,-0.0422668,
0.4305,-0.0486755,
0.431,-0.0553894,
0.4315,-0.0634766,
0.432,-0.0682068,
0.4325,-0.0604248,
0.433,-0.052948,
0.4335,-0.0601196,
0.434,-0.0958252,
0.4345,-0.144806,
0.435,-0.173798,
0.4355,-0.161438,
0.436,-0.110474,
0.4365,-0.0483704,
0.437,-0.0166321,
0.4375,-0.0190735,
0.438,-0.0364685,
0.4385,-0.0454712,
0.439,-0.0163269,
0.4395,0.0634766,
0.44,0.173187,
0.4405,0.268097,
0.441,0.308533,
0.4415,0.295563,
0.442,0.244446,
0.4425,0.169373,
0.443,0.0869751,
0.4435,0.0186157,
0.444,-0.0164795,
0.4445,-0.0236511,
0.445,-0.0248718,
0.4455,-0.0378418,
0.446,-0.0556946,
0.4465,-0.0630188,
0.447,-0.065918,
0.4475,-0.0740051,
0.448,-0.0935364,
0.4485,-0.108032,
0.449,-0.0712585,
0.4495,0.025177,
0.45,0.131378,
0.4505,0.169678,
0.451,0.139771,
0.4515,0.0993347,
0.452,0.0822449,
0.4525,0.0671387,
0.453,0.0354004,
0.4535,0.0128174,
0.454,0.0219727,
0.4545,0.0309753,
0.455,0.00717163,
0.4555,-0.0244141,
0.456,-0.022583,
0.4565,-0.0108337,
0.457,-0.0315857,
0.4575,-0.0845337,
0.458,-0.130005,
0.4585,-0.138397,
0.459,-0.106201,
0.4595,-0.0631714,
0.46,-0.0502014,
0.4605,-0.0730896,
0.461,-0.0947571,
0.4615,-0.0872803,
0.462,-0.04776,
0.4625,0.0108337,
0.463,0.0653076,
0.4635,0.0920105,
0.464,0.0886536,
0.4645,0.0717163,
0.465,0.0392151,
0.4655,-0.00564575,
0.466,-0.0354004,
0.4665,-0.0306702,
0.467,-0.00167847,
0.4675,0.0283813,
0.468,0.0431824,
0.4685,0.0509644,
0.469,0.0593567,
0.4695,0.0524902,
0.47,0.0257874,
0.4705,0.00244141,
0.471,0.0012207,
0.4715,0.00610352,
0.472,0.00350952,
0.4725,0.00167847,
0.473,0.00900269,
0.4735,0.0108337,
0.474,-0.00427246,
0.4745,-0.0334167,
0.475,-0.0587463,
0.4755,-0.0656128,
0.476,-0.062561,
0.4765,-0.0640869,
0.477,-0.0698853,
0.4775,-0.0723267,
0.478,-0.075531,
0.4785,-0.0820923,
0.479,-0.0776672,
0.4795,-0.0617981,
0.48,-0.0489807,
0.4805,-0.038147,
0.481,-0.0297546,
0.4815,-0.0361633,
0.482,-0.0460815,
0.4825,-0.0498962,
0.483,-0.0323486,
0.4835,0.0170898,
0.484,0.0764465,
0.4845,0.107269,
0.485,0.110474,
0.4855,0.110016,
0.486,0.108643,
0.4865,0.0982666,
0.487,0.0750732,
0.4875,0.0537109,
0.488,0.0447083,
0.4885,0.0271606,
0.489,-0.00930786,
0.4895,-0.0421143,
0.49,-0.0576782,
0.4905,-0.0564575,
0.491,-0.0537109,
0.4915,-0.0675964,
0.492,-0.101776,
0.4925,-0.137482,
0.493,-0.152435,
0.4935,-0.144806,
0.494,-0.112762,
0.4945,-0.0718689,
0.495,-0.0447083,
0.4955,-0.0396729,
0.496,-0.0398254,
0.4965,-0.0273132,
0.497,0.0215149,
0.4975,0.0942993,
0.498,0.133057,
0.4985,0.112152,
0.499,0.0538635,
0.4995,0.00686646,
0.5,-0.00549316,
0.5005,-0.00335693,
0.501,0,
0.5015,0.00137329,
0.502,0,
0.5025,0.00930786,
0.503,0.0241089,
0.5035,0.022583,
0.504,-0.00350952,
0.5045,-0.0454712,
0.505,-0.0843811,
0.5055,-0.104828,
0.506,-0.106049,
0.5065,-0.0842285,
0.507,-0.0325012,
0.5075,0.0192261,
0.508,0.0384521,
0.5085,0.025177,
0.509,0.00793457,
0.5095,0.0244141,
0.51,0.0737,
0.5105,0.133209,
0.511,0.161438,
0.5115,0.12085,
0.512,0.0485229,
0.5125,0.000152588,
0.513,-0.0236511,
0.5135,-0.045166,
0.514,-0.0737,
0.5145,-0.0909424,
0.515,-0.0767517,
0.5155,-0.0401306,
0.516,0.0126648,
0.5165,0.0817871,
0.517,0.161133,
0.5175,0.211487,
0.518,0.203094,
0.5185,0.171051,
0.519,0.149841,
0.5195,0.123291,
0.52,0.0805664,
0.5205,0.0292969,
0.521,-0.015564,
0.5215,-0.0379944,
0.522,-0.0415039,
0.5225,-0.0419617,
0.523,-0.0473022,
0.5235,-0.059967,
0.524,-0.0860596,
0.5245,-0.120544,
0.525,-0.116577,
0.5255,-0.0663757,
0.526,-0.0167847,
0.5265,0.00839233,
0.527,-0.00579834,
0.5275,-0.0643921,
0.528,-0.123596,
0.5285,-0.122681,
0.529,-0.0395203,
0.5295,0.0827026,
0.53,0.175476,
0.5305,0.184784,
0.531,0.159302,
0.5315,0.132904,
0.532,0.0752258,
0.5325,0.0125122,
0.533,0.0137329,
0.5335,0.0773621,
0.534,0.111847,
0.5345,0.0796509,
0.535,0.0218201,
0.5355,-0.0215149,
0.536,-0.0439453,
0.5365,-0.0422668,
0.537,-0.0323486,
0.5375,-0.0167847,
0.538,0.00213623,
0.5385,0.00396729,
0.539,-0.0325012,
0.5395,-0.105133,
0.54,-0.172424,
0.5405,-0.185699,
0.541,-0.146332,
0.5415,-0.113831,
0.542,-0.139465,
0.5425,-0.187988,
0.543,-0.175781,
0.5435,-0.104675,
0.544,-0.0340271,
0.5445,0.00839233,
0.545,0.0358582,
0.5455,0.0964355,
0.546,0.171661,
0.5465,0.172272,
0.547,0.110779,
0.5475,0.0666809,
0.548,0.057373,
0.5485,0.0387573,
0.549,0.0088501,
0.5495,0.0137329,
0.55,0.0456238,
0.5505,0.043335,
0.551,0.0198364,
0.5515,0.0175476,
0.552,0.00518799,
0.5525,-0.0569153,
0.553,-0.115814,
0.5535,-0.0965881,
0.554,-0.0280762,
0.5545,0.0244141,
0.555,0.062561,
0.5555,0.103302,
0.556,0.110626,
0.5565,0.0669861,
0.557,-0.00396729,
0.5575,-0.0624084,
0.558,-0.0820923,
0.5585,-0.0756836,
0.559,-0.0730896,
0.5595,-0.0709534,
0.56,-0.0569153,
0.5605,-0.04776,
0.561,-0.0576782,
0.5615,-0.0878906,
0.562,-0.133667,
0.5625,-0.179901,
0.563,-0.211029,
0.5635,-0.220795,
0.564,-0.220337,
0.5645,-0.216522,
0.565,-0.193939,
0.5655,-0.133057,
0.566,-0.0283813,
0.5665,0.109406,
0.567,0.232697,
0.5675,0.303802,
0.568,0.315857,
0.5685,0.281525,
0.569,0.218353,
0.5695,0.150909,
0.57,0.0978088,
0.5705,0.0634766,
0.571,0.027771,
0.5715,-0.0138855,
0.572,-0.0483704,
0.5725,-0.0874329,
0.573,-0.131226,
0.5735,-0.148315,
0.574,-0.122528,
0.5745,-0.0692749,
0.575,-0.00717163,
0.5755,0.0535583,
0.576,0.126801,
0.5765,0.22049,
0.577,0.298767,
0.5775,0.310822,
0.578,0.250092,
0.5785,0.157166,
0.579,0.0846863,
0.5795,0.0469971,
0.58,0.0151062,
0.5805,-0.0382996,
0.581,-0.0979614,
0.5815,-0.123138,
0.582,-0.113831,
0.5825,-0.0952148,
0.583,-0.0646973,
0.5835,-0.0230408,
0.584,-0.0320435,
0.5845,-0.110931,
0.585,-0.182037,
0.5855,-0.188446,
0.586,-0.175018,
0.5865,-0.182953,
0.587,-0.203552,
0.5875,-0.184937,
0.588,-0.0997925,
0.5885,-0.00152588,
0.589,0.0354004,
0.5895,-0.00366211,
0.59,-0.0463867,
0.5905,-0.0314331,
0.591,0.0166321,
0.5915,0.0457764,
0.592,0.0576782,
0.5925,0.0782776,
0.593,0.0880432,
0.5935,0.0640869,
0.594,0.0184631,
0.5945,-0.0114441,
0.595,-0.0213623,
0.5955,-0.0535583,
0.596,-0.0953674,
0.5965,-0.11322,
0.597,-0.112152,
0.5975,-0.111847,
0.598,-0.142059,
0.5985,-0.192566,
0.599,-0.20874,
0.5995,-0.169678,
0.6,-0.0724792,
0.6005,0.0370789,
0.601,0.0939941,
0.6015,0.0776672,
0.602,0.0624084,
0.6025,0.098877,
0.603,0.147705,
0.6035,0.159149,
0.604,0.140533,
0.6045,0.117493,
0.605,0.100403,
0.6055,0.0724792,
0.606,0.0305176,
0.6065,-0.00411987,
0.607,-0.0242615,
0.6075,-0.0605774,
0.608,-0.111084,
0.6085,-0.150299,
0.609,-0.172424,
0.6095,-0.183105,
0.61,-0.197449,
0.6105,-0.231476,
0.611,-0.244598,
0.6115,-0.154724,
0.612,0.0350952,
0.6125,0.21759,
0.613,0.326233,
0.6135,0.393219,
0.614,0.429993,
0.6145,0.39917,
0.615,0.317078,
0.6155,0.220795,
0.616,0.127106,
0.6165,0.0483704,
0.617,-0.0125122,
0.6175,-0.0657654,
0.618,-0.087738,
0.6185,-0.0801086,
0.619,-0.083313,
0.6195,-0.114746,
0.62,-0.167847,
0.6205,-0.200043,
0.621,-0.171509,
0.6215,-0.102386,
0.622,-0.0241089,
0.6225,0.0204468,
0.623,0.0062561,
0.6235,-0.032196,
0.624,-0.0340271,
0.6245,-0.00961304,
0.625,-0.000305176,
0.6255,-0.00396729,
0.626,-0.00839233,
0.6265,-0.0105286,
0.627,-0.0144958,
0.6275,-0.0143433,
0.628,-0.0135803,
0.6285,-0.0157166,
0.629,-0.0201416,
0.6295,-0.0245667,
0.63,-0.0282288,
0.6305,-0.0195313,
0.631,-0.0180054,
0.6315,-0.0285339,
0.632,-0.0367737,
0.6325,-0.0395203,
0.633,-0.0309753,
0.6335,-0.00411987,
0.634,0.00183105,
0.6345,-0.055542,
0.635,-0.128021,
0.6355,-0.143433,
0.636,-0.10437,
0.6365,-0.0810242,
0.637,-0.107269,
0.6375,-0.154419,
0.638,-0.16922,
0.6385,-0.0927734,
0.639,0.0645447,
0.6395,0.214233,
0.64,0.32608,
0.6405,0.405884,
0.641,0.408173,
0.6415,0.306396,
0.642,0.157166,
0.6425,0.0431824,
0.643,-0.0256348,
0.6435,-0.085144,
0.644,-0.113525,
0.6445,-0.0762939,
0.645,-0.0108337,
0.6455,0.025177,
0.646,0.0512695,
0.6465,0.111389,
0.647,0.159149,
0.6475,0.13382,
0.648,0.0704956,
0.6485,0.0349426,
0.649,0.0260925,
0.6495,0.0117493,
0.65,-0.0314331,
0.6505,-0.0897217,
0.651,-0.143738,
0.6515,-0.193176,
0.652,-0.243378,
0.6525,-0.267639,
0.653,-0.231018,
0.6535,-0.148621,
0.654,-0.0456238,
0.6545,0.0569153,
0.655,0.14801,
0.6555,0.224457,
0.656,0.265503,
0.6565,0.276642,
0.657,0.263977,
0.6575,0.19989,
0.658,0.109253,
0.6585,0.0524902,
0.659,0.0119019,
0.6595,-0.040741,
0.66,-0.0666809,
0.6605,-0.0512695,
0.661,-0.035553,
0.6615,-0.0450134,
0.662,-0.072937,
0.6625,-0.10498,
0.663,-0.136261,
0.6635,-0.162659,
0.664,-0.142975,
0.6645,-0.0485229,
0.665,0.0646973,
0.6655,0.110168,
0.666,0.093689,
0.6665,0.0532532,
0.667,-0.00640869,
0.6675,-0.055542,
0.668,-0.0669861,
0.6685,-0.0605774,
0.669,-0.0639343,
0.6695,-0.088501,
0.67,-0.10788,
0.6705,-0.110626,
0.671,-0.119324,
0.6715,-0.102692,
0.672,-0.0358582,
0.6725,0.0166321,
0.673,0.0360107,
0.6735,0.0561523,
0.674,0.0872803,
0.6745,0.105591,
0.675,0.0723267,
0.6755,0.0170898,
0.676,0.0238037,
0.6765,0.0785828,
0.677,0.0802612,
0.6775,0.0228882,
0.678,-0.00976563,
0.6785,0.000610352,
0.679,0.0146484,
0.6795,0.00610352,
0.68,-0.00915527,
0.6805,-0.00473022,
0.681,-0.000610352,
0.6815,-0.0239563,
0.682,-0.0643921,
0.6825,-0.103607,
0.683,-0.12558,
0.6835,-0.117798,
0.684,-0.101166,
0.6845,-0.0968933,
0.685,-0.109253,
0.6855,-0.116882,
0.686,-0.0717163,
0.6865,-0.00228882,
0.687,0.0370789,
0.6875,0.0535583,
0.688,0.0578308,
0.6885,0.0448608,
0.689,0.0283813,
0.6895,0.0169373,
0.69,0.00991821,
0.6905,0.00823975,
0.691,0.0137329,
0.6915,0.00991821,
0.692,0.00671387,
0.6925,0.00396729,
0.693,0.00579834,
0.6935,0.0379944,
0.694,0.0799561,
0.6945,0.0820923,
0.695,0.0471497,
0.6955,0.00549316,
0.696,-0.00930786,
0.6965,-0.0164795,
0.697,-0.0492859,
0.6975,-0.0834656,
0.698,-0.0849915,
0.6985,-0.0688171,
0.699,-0.0643921,
0.6995,-0.0765991,
0.7,-0.0918579,
0.7005,-0.0939941,
0.701,-0.0946045,
0.7015,-0.10376,
0.702,-0.0950623,
0.7025,-0.0418091,
0.703,0.0372314,
0.7035,0.0531006,
0.704,0.00442505,
0.7045,-0.0308228,
0.705,-0.0112915,
0.7055,0.0801086,
0.706,0.206451,
0.7065,0.293579,
0.707,0.312195,
0.7075,0.263062,
0.708,0.184784,
0.7085,0.108185,
0.709,0.0514221,
0.7095,0.037384,
0.71,0.0494385,
0.7105,0.0534058,
0.711,0.0556946,
0.7115,0.0627136,
0.712,0.0598145,
0.7125,0.0384521,
0.713,0.000305176,
0.7135,-0.038147,
0.714,-0.0540161,
0.7145,-0.052948,
0.715,-0.0585938,
0.7155,-0.0813293,
0.716,-0.0949097,
0.7165,-0.0747681,
0.717,-0.0492859,
0.7175,-0.0340271,
0.718,-0.0131226,
0.7185,0.00900269,
0.719,0.0111389,
0.7195,0.00137329,
0.72,0.00228882,
0.7205,0.0234985,
0.721,0.0482178,
0.7215,0.0556946,
0.722,0.0404358,
0.7225,0.0149536,
0.723,-0.00656128,
0.7235,-0.0302124,
0.724,-0.0616455,
0.7245,-0.102386,
0.725,-0.137024,
0.7255,-0.141144,
0.726,-0.117798,
0.7265,-0.106812,
0.727,-0.111084,
0.7275,-0.0845337,
0.728,-0.0263977,
0.7285,0.0170898,
0.729,-0.00137329,
0.7295,-0.0627136,
0.73,-0.10437,
0.7305,-0.105286,
0.731,-0.0715637,
0.7315,-0.0378418,
0.732,-0.0158691,
0.7325,0.0123596,
0.733,0.0474548,
0.7335,0.0770569,
0.734,0.092926,
0.7345,0.103455,
0.735,0.121918,
0.7355,0.138092,
0.736,0.130157,
0.7365,0.105743,
0.737,0.0820923,
0.7375,0.0697327,
0.738,0.072937,
0.7385,0.0584412,
0.739,0.00610352,
0.7395,-0.0489807,
0.74,-0.0788879,
0.7405,-0.0811768,
0.741,-0.0715637,
0.7415,-0.0645447,
0.742,-0.0712585,
0.7425,-0.0831604,
0.743,-0.0817871,
0.7435,-0.0598145,
0.744,-0.0247192,
0.7445,0.00656128,
0.745,0.0424194,
0.7455,0.0692749,
0.746,0.0508118,
0.7465,-0.00228882,
0.747,-0.055542,
0.7475,-0.10849,
0.748,-0.174561,
0.7485,-0.229797,
0.749,-0.23941,
0.7495,-0.174103,
0.75,-0.0422668,
0.7505,0.111237,
0.751,0.231934,
0.7515,0.278778,
0.752,0.259247,
0.7525,0.24231,
0.753,0.246429,
0.7535,0.234222,
0.754,0.194092,
0.7545,0.134735,
0.755,0.0770569,
0.7555,0.0308228,
0.756,-0.0190735,
0.7565,-0.0579834,
0.757,-0.0642395,
0.7575,-0.0544739,
0.758,-0.0369263,
0.7585,-0.0234985,
0.759,-0.0315857,
0.7595,-0.0553894,
0.76,-0.0669861,
0.7605,-0.0614929,
0.761,-0.0665283,
0.7615,-0.0942993,
0.762,-0.135803,
0.7625,-0.148926,
0.763,-0.0952148,
0.7635,-0.00747681,
0.764,0.0663757,
0.7645,0.107574,
0.765,0.118561,
0.7655,0.0970459,
0.766,0.0541687,
0.7665,0.0111389,
0.767,-0.0109863,
0.7675,-0.00946045,
0.768,0.000305176,
0.7685,-0.0210571,
0.769,-0.065918,
0.7695,-0.0819397,
0.77,-0.0576782,
0.7705,-0.0204468,
0.771,0.0163269,
0.7715,0.032959,
0.772,0.0151062,
0.7725,-0.00656128,
0.773,-0.0227356,
0.7735,-0.0379944,
0.774,-0.0376892,
0.7745,-0.0300598,
0.775,-0.0183105,
0.7755,-0.00579834,
0.776,0.00915527,
0.7765,0.0180054,
0.777,0.0157166,
0.7775,-0.00305176,
0.778,-0.0236511,
0.7785,-0.0209045,
0.779,-0.00610352,
0.7795,0.00167847,
0.78,-0.00244141,
0.7805,-0.00823975,
0.781,-0.0209045,
0.7815,-0.0361633,
0.782,-0.0389099,
0.7825,-0.0382996,
0.783,-0.0453186,
0.7835,-0.04776,
0.784,-0.0202942,
0.7845,0.0128174,
0.785,0.0196838,
0.7855,0.00732422,
0.786,-0.0204468,
0.7865,-0.058136,
0.787,-0.0918579,
0.7875,-0.104523,
0.788,-0.0868225,
0.7885,-0.0617981,
0.789,-0.0500488,
0.7895,-0.0526428,
0.79,-0.0549316,
0.7905,-0.0544739,
0.791,-0.0662231,
0.7915,-0.0857544,
0.792,-0.0831604,
0.7925,-0.0584412,
0.793,-0.0389099,
0.7935,-0.0398254,
0.794,-0.0546265,
0.7945,-0.0657654,
0.795,-0.0727844,
0.7955,-0.0845337,
0.796,-0.0811768,
0.7965,-0.0341797,
0.797,0.0798035,
0.7975,0.257263,
0.798,0.394592,
0.7985,0.387115,
0.799,0.278168,
0.7995,0.181732,
0.8,0.107422,
0.8005,0.0485229,
0.801,0.0292969,
0.8015,0.0379944,
0.802,0.045166,
0.8025,0.0408936,
0.803,0.0294495,
0.8035,0.0244141,
0.804,0.0309753,
0.8045,0.0456238,
0.805,0.0453186,
0.8055,0.0134277,
0.806,-0.0184631,
0.8065,-0.0216675,
0.807,-0.0146484,
0.8075,-0.0248718,
0.808,-0.0421143,
0.8085,-0.0422668,
0.809,-0.0205994,
0.8095,-0.00366211,
0.81,-0.00854492,
0.8105,-0.0193787,
0.811,-0.0227356,
0.8115,-0.0218201,
0.812,-0.0273132,
0.8125,-0.0340271,
0.813,-0.0398254,
0.8135,-0.0547791,
0.814,-0.0773621,
0.8145,-0.0990295,
0.815,-0.116577,
0.8155,-0.130615,
0.816,-0.145569,
0.8165,-0.146484,
0.817,-0.103455,
0.8175,-0.00854492,
0.818,0.0749207,
0.8185,0.102234,
0.819,0.0880432,
0.8195,0.0643921,
0.82,0.0531006,
0.8205,0.0422668,
0.821,0.0215149,
0.8215,-0.00335693,
0.822,-0.0384521,
0.8225,-0.0648499,
0.823,-0.0431824,
0.8235,0.000915527,
0.824,0.0149536,
0.8245,0.00320435,
0.825,0,
0.8255,0.0192261,
0.826,0.0228882,
0.8265,0.0192261,
0.827,0.0392151,
0.8275,0.0802612,
0.828,0.118561,
0.8285,0.137329,
0.829,0.122833,
0.8295,0.0814819,
0.83,0.032959,
0.8305,0.00106812,
0.831,0.00350952,
0.8315,0.017395,
0.832,0.0115967,
0.8325,0.00671387,
0.833,0.01297,
0.8335,-0.015564,
0.834,-0.0689697,
0.8345,-0.104065,
0.835,-0.122986,
0.8355,-0.140686,
0.836,-0.149841,
0.8365,-0.136566,
0.837,-0.114441,
0.8375,-0.0762939,
0.838,-0.0212097,
0.8385,-0.000305176,
0.839,-0.0314331,
0.8395,-0.0558472,
0.84,-0.00823975,
0.8405,0.0695801,
0.841,0.103912,
0.8415,0.085907,
0.842,0.0621033,
0.8425,0.0590515,
0.843,0.062561,
0.8435,0.0721741,
0.844,0.0819397,
0.8445,0.0688171,
0.845,0.0387573,
0.8455,0.00595093,
0.846,-0.0105286,
0.8465,-0.00732422,
0.847,-0.00915527,
0.8475,-0.0222778,
0.848,-0.0357056,
0.8485,-0.0424194,
0.849,-0.045929,
0.8495,-0.042572,
0.85,-0.0328064,
0.8505,-0.0192261,
0.851,-0.00442505,
0.8515,0.00213623,
0.852,-0.00366211,
0.8525,-0.0180054,
0.853,-0.0256348,
0.8535,-0.0212097,
0.854,-0.0233459,
0.8545,-0.0346375,
0.855,-0.040741,
0.8555,-0.038147,
0.856,-0.0411987,
0.8565,-0.0506592,
0.857,-0.0532532,
0.8575,-0.0567627,
0.858,-0.078125,
0.8585,-0.102386,
0.859,-0.131836,
0.8595,-0.160828,
0.86,-0.144653,
0.8605,-0.0474548,
0.861,0.0888062,
0.8615,0.175171,
0.862,0.20813,
0.8625,0.226135,
0.863,0.205383,
0.8635,0.132751,
0.864,0.0598145,
0.8645,0.0268555,
0.865,0.0259399,
0.8655,0.0228882,
0.866,0.0119019,
0.8665,0.00427246,
0.867,0.00717163,
0.8675,-0.00289917,
0.868,-0.0169373,
0.8685,-0.0134277,
0.869,-0.00488281,
0.8695,-0.0119019,
0.87,-0.0221252,
0.8705,-0.00717163,
0.871,0.0250244,
0.8715,0.0404358,
0.872,0.0126648,
0.8725,-0.0404358,
0.873,-0.0778198,
0.8735,-0.0846863,
0.874,-0.0776672,
0.8745,-0.0730896,
0.875,-0.078125,
0.8755,-0.0866699,
0.876,-0.0849915,
0.8765,-0.0834656,
0.877,-0.0888062,
0.8775,-0.0888062,
0.878,-0.0843811,
0.8785,-0.0804138,
0.879,-0.0505066,
0.8795,0.0216675,
0.88,0.0874329,
0.8805,0.13855,
0.881,0.171967,
0.8815,0.175323,
0.882,0.146942,
0.8825,0.096283,
0.883,0.0401306,
0.8835,-0.00915527,
0.884,-0.0366211,
0.8845,-0.015564,
0.885,0.0550842,
0.8855,0.11322,
0.886,0.103302,
0.8865,0.0465393,
0.887,0.00213623,
0.8875,-0.00656128,
0.888,0.000457764,
0.8885,-0.00289917,
0.889,-0.0302124,
0.8895,-0.0704956,
0.89,-0.106354,
0.8905,-0.0823975,
0.891,0.0144958,
0.8915,0.123749,
0.892,0.180511,
0.8925,0.16571,
0.893,0.0949097,
0.8935,0.0112915,
0.894,-0.0296021,
0.8945,-0.0238037,
0.895,-0.0234985,
0.8955,-0.040741,
0.896,-0.0527954,
0.8965,-0.0566101,
0.897,-0.0569153,
0.8975,-0.0663757,
0.898,-0.0706482,
0.8985,-0.0509644,
0.899,-0.0302124,
0.8995,-0.0271606,
0.9,-0.0318909,
0.9005,-0.0248718,
0.901,-0.0154114,
0.9015,-0.0119019,
0.902,-0.0291443,
0.9025,-0.050354,
0.903,-0.0437927,
0.9035,-0.014801,
0.904,0.00839233,
0.9045,0.00671387,
0.905,-0.0119019,
0.9055,-0.0512695,
0.906,-0.100708,
0.9065,-0.136414,
0.907,-0.155029,
0.9075,-0.175629,
0.908,-0.195465,
0.9085,-0.201416,
0.909,-0.178223,
0.9095,-0.129089,
0.91,-0.0637817,
0.9105,0.00671387,
0.911,0.0578308,
0.9115,0.068512,
0.912,0.0820923,
0.9125,0.142822,
0.913,0.211639,
0.9135,0.219421,
0.914,0.172882,
0.9145,0.124512,
0.915,0.0865173,
0.9155,0.0576782,
0.916,0.0418091,
0.9165,0.0338745,
0.917,0.0172424,
0.9175,-0.0138855,
0.918,-0.0462341,
0.9185,-0.0717163,
0.919,-0.114594,
0.9195,-0.183411,
0.92,-0.217285,
0.9205,-0.186005,
0.921,-0.0854492,
0.9215,0.0482178,
0.922,0.142975,
0.9225,0.154266,
0.923,0.151825,
0.9235,0.192566,
0.924,0.221863,
0.9245,0.184326,
0.925,0.124512,
0.9255,0.0933838,
0.926,0.0801086,
0.9265,0.0662231,
0.927,0.0389099,
0.9275,-0.00198364,
0.928,-0.0302124,
0.9285,-0.0338745,
0.929,-0.0291443,
0.9295,-0.0393677,
0.93,-0.0576782,
0.9305,-0.0691223,
0.931,-0.0657654,
0.9315,-0.0401306,
0.932,-0.00869751,
0.9325,0.00930786,
0.933,0.0062561,
0.9335,0,
0.934,0.00900269,
0.9345,0.0296021,
0.935,0.0427246,
0.9355,0.0331116,
0.936,-0.0111389,
0.9365,-0.0753784,
0.937,-0.141602,
0.9375,-0.190125,
0.938,-0.209503,
0.9385,-0.216217,
0.939,-0.224304,
0.9395,-0.234375,
0.94,-0.214233,
0.9405,-0.157166,
0.941,-0.0944519,
0.9415,-0.0567627,
0.942,-0.0550842,
0.9425,-0.0621033,
0.943,-0.0132751,
0.9435,0.10849,
0.944,0.228271,
0.9445,0.275116,
0.945,0.264435,
0.9455,0.224915,
0.946,0.174103,
0.9465,0.127106,
0.947,0.0944519,
0.9475,0.0819397,
0.948,0.0823975,
0.9485,0.115051,
0.949,0.159149,
0.9495,0.149384,
0.95,0.0918579,
0.9505,0.0436401,
0.951,0.0160217,
0.9515,-0.0149536,
0.952,-0.039978,
0.9525,-0.0286865,
0.953,0.0062561,
0.9535,0.0311279,
0.954,0.0511169,
0.9545,0.0743103,
0.955,0.0691223,
0.9555,0.032196,
0.956,0.0088501,
0.9565,0.0102234,
0.957,0.0117493,
0.9575,0.00106812,
0.958,-0.0151062,
0.9585,-0.0218201,
0.959,-0.0190735,
0.9595,-0.0149536,
0.96,-0.0146484,
0.9605,-0.0205994,
0.961,-0.0294495,
0.9615,-0.0456238,
0.962,-0.0637817,
0.9625,-0.0680542,
0.963,-0.0662231,
0.9635,-0.0700378,
0.964,-0.072937,
0.9645,-0.0665283,
0.965,-0.0544739,
0.9655,-0.0471497,
0.966,-0.0650024,
0.9665,-0.111694,
0.967,-0.157471,
0.9675,-0.1828,
0.968,-0.199432,
0.9685,-0.216217,
0.969,-0.236816,
0.9695,-0.269775,
0.97,-0.314636,
0.9705,-0.326538,
0.971,-0.264587,
0.9715,-0.132904,
0.972,0.0196838,
0.9725,0.155487,
0.973,0.282135,
0.9735,0.363007,
0.974,0.361938,
0.9745,0.305328,
0.975,0.251007,
0.9755,0.249939,
0.976,0.279999,
0.9765,0.265656,
0.977,0.19043,
0.9775,0.103912,
0.978,0.0457764,
0.9785,0.0125122,
0.979,-0.00732422,
0.9795,-0.00778198,
0.98,-0.00610352,
0.9805,-0.0146484,
0.981,-0.0209045,
0.9815,-0.0306702,
0.982,-0.0517273,
0.9825,-0.0672913,
0.983,-0.0627136,
0.9835,-0.0460815,
0.984,-0.0244141,
0.9845,0.00549316,
0.985,0.0169373,
0.9855,-0.00961304,
0.986,-0.0604248,
0.9865,-0.0933838,
0.987,-0.0765991,
0.9875,-0.0312805,
0.988,-0.000610352,
0.9885,0.00289917,
0.989,-0.00320435,
0.9895,-0.00686646,
0.99,-0.0186157,
0.9905,-0.0595093,
0.991,-0.098877,
0.9915,-0.0932312,
0.992,-0.055542,
0.9925,-0.0273132,
0.993,-0.038147,
0.9935,-0.0764465,
0.994,-0.106049,
0.9945,-0.122681,
0.995,-0.123749,
0.9955,-0.125427,
0.996,-0.145416,
0.9965,-0.157318,
0.997,-0.150452,
0.9975,-0.149841,
0.998,-0.160522,
0.9985,-0.128174,
0.999,-0.0444031,
0.9995,0.0186157,
1,0.0280762,
1.0005,0.0172424,
1.001,-0.0167847,
1.0015,-0.0692749,
1.002,-0.0939941,
1.0025,-0.0596619,
1.003,0.00839233,
1.0035,0.040741,
1.004,0.0242615,
1.0045,-0.0210571,
1.005,-0.0810242,
1.0055,-0.0894165,
1.006,0.027771,
1.0065,0.205994,
1.007,0.322876,
1.0075,0.354462,
1.008,0.36972,
1.0085,0.368805,
1.009,0.331116,
1.0095,0.291901,
1.01,0.245819,
1.0105,0.15152,
1.011,0.022583,
1.0115,-0.0958252,
1.012,-0.167084,
1.0125,-0.176239,
1.013,-0.118866,
1.0135,-0.00213623,
1.014,0.101013,
1.0145,0.151672,
1.015,0.186615,
1.0155,0.202484,
1.016,0.153809,
1.0165,0.0668335,
1.017,0.000457764,
1.0175,-0.0354004,
1.018,-0.0460815,
1.0185,-0.050354,
1.019,-0.052948,
1.0195,-0.0558472,
1.02,-0.0724792,
1.0205,-0.104218,
1.021,-0.131683,
1.0215,-0.144043,
1.022,-0.136719,
1.0225,-0.10498,
1.023,-0.0588989,
1.0235,-0.0109863,
1.024,0.0279236,
1.0245,0.0401306,
1.025,0.0308228,
1.0255,0.00640869,
1.026,-0.0382996,
1.0265,-0.106354,
1.027,-0.17746,
1.0275,-0.219421,
1.028,-0.191345,
1.0285,-0.0996399,
1.029,0.00137329,
1.0295,0.0662231,
1.03,0.096283,
1.0305,0.106659,
1.031,0.123291,
1.0315,0.134277,
1.032,0.114136,
1.0325,0.0805664,
1.033,0.0614929,
1.0335,0.0466919,
1.034,0.00564575,
1.0345,-0.0645447,
1.035,-0.145721,
1.0355,-0.213165,
1.036,-0.225525,
1.0365,-0.200043,
1.037,-0.167084,
1.0375,-0.11322,
1.038,-0.0296021,
1.0385,0.0485229,
1.039,0.0947571,
1.0395,0.126801,
1.04,0.163879,
1.0405,0.180817,
1.041,0.154266,
1.0415,0.13855,
1.042,0.132751,
1.0425,0.0878906,
1.043,0.0248718,
1.0435,-0.00305176,
1.044,0.00762939,
1.0445,0.0151062,
1.045,0.0178528,
1.0455,0.00152588,
1.046,-0.0349426,
1.0465,-0.0723267,
1.047,-0.100708,
1.0475,-0.120087,
1.048,-0.135345,
1.0485,-0.179443,
1.049,-0.253143,
1.0495,-0.271912,
1.05,-0.202484,
1.0505,-0.135498,
1.051,-0.12207,
1.0515,-0.129242,
1.052,-0.117188,
1.0525,-0.0895691,
1.053,-0.0543213,
1.0535,0.0115967,
1.054,0.0869751,
1.0545,0.138092,
1.055,0.171204,
1.0555,0.225372,
1.056,0.301971,
1.0565,0.325317,
1.057,0.283203,
1.0575,0.205841,
1.058,0.147247,
1.0585,0.112,
1.059,0.0585938,
1.0595,0.0132751,
1.06,-0.00198364,
1.0605,-0.0219727,
1.061,-0.0315857,
1.0615,-0.0170898,
1.062,0.00808716,
1.0625,0.00854492,
1.063,-0.0302124,
1.0635,-0.0520325,
1.064,-0.0306702,
1.0645,-0.0228882,
1.065,-0.0410461,
1.0655,-0.0387573,
1.066,-0.0390625,
1.0665,-0.075531,
1.067,-0.133514,
1.0675,-0.172882,
1.068,-0.193176,
1.0685,-0.240784,
1.069,-0.287476,
1.0695,-0.270081,
1.07,-0.196228,
1.0705,-0.0933838,
1.071,0.0318909,
1.0715,0.166931,
1.072,0.2771,
1.0725,0.287018,
1.073,0.167236,
1.0735,0.0248718,
1.074,-0.0328064,
1.0745,0.000305176,
1.075,0.038147,
1.0755,0.0158691,
1.076,0.00488281,
1.0765,0.0379944,
1.077,0.0773621,
1.0775,0.0871277,
1.078,0.0646973,
1.0785,0.043335,
1.079,0.042572,
1.0795,0.0292969,
1.08,-0.0332642,
1.0805,-0.119324,
1.081,-0.123291,
1.0815,-0.0242615,
1.082,0.0363159,
1.0825,0.0318909,
1.083,0.0349426,
1.0835,0.0442505,
1.084,-0.0137329,
1.0845,-0.128021,
1.085,-0.140686,
1.0855,-0.0146484,
1.086,0.103149,
1.0865,0.108337,
1.087,0.0860596,
1.0875,0.119934,
1.088,0.133362,
1.0885,0.0668335,
1.089,0.00976563,
1.0895,0.0500488,
1.09,0.136414,
1.0905,0.147858,
1.091,0.0775146,
1.0915,-0.012207,
1.092,-0.0605774,
1.0925,-0.0827026,
1.093,-0.109558,
1.0935,-0.131683,
1.094,-0.130463,
1.0945,-0.109253,
1.095,-0.0904846,
1.0955,-0.0500488,
1.096,0.0793457,
1.0965,0.224152,
1.097,0.24353,
1.0975,0.198212,
1.098,0.150452,
1.0985,0.0257874,
1.099,-0.130157,
1.0995,-0.177612,
1.1,-0.108795,
1.1005,-0.04776,
1.101,-0.0543213,
1.1015,-0.0767517,
1.102,-0.115204,
1.1025,-0.147095,
1.103,-0.143433,
1.1035,-0.106964,
1.104,-0.0737,
1.1045,-0.0585938,
1.105,-0.0456238,
1.1055,-0.045929,
1.106,-0.0732422,
1.1065,-0.0949097,
1.107,-0.0569153,
1.1075,0.017395,
1.108,0.0723267,
1.1085,0.0924683,
1.109,0.0914001,
1.1095,0.045929,
1.11,0.00442505,
1.1105,0.0180054,
1.111,0.0387573,
1.1115,0.0515747,
1.112,0.106201,
1.1125,0.175323,
1.113,0.18219,
1.1135,0.115509,
1.114,0.0273132,
1.1145,-0.0158691,
1.115,-0.0140381,
1.1155,-0.0131226,
1.116,-0.0473022,
1.1165,-0.0999451,
1.117,-0.0987244,
1.1175,-0.0276184,
1.118,0.0511169,
1.1185,0.0675964,
1.119,0.0291443,
1.1195,0.00152588,
1.12,0.00259399,
1.1205,0.0149536,
1.121,0.0260925,
1.1215,0.0184631,
1.122,-0.0149536,
1.1225,-0.0920105,
1.123,-0.185547,
1.1235,-0.240173,
1.124,-0.21286,
1.1245,-0.14389,
1.125,-0.13031,
1.1255,-0.187988,
1.126,-0.270386,
1.1265,-0.312195,
1.127,-0.229645,
1.1275,-0.0154114,
1.128,0.22995,
1.1285,0.407715,
1.129,0.430298,
1.1295,0.300751,
1.13,0.153503,
1.1305,0.0773621,
1.131,0.0239563,
1.1315,-0.018158,
1.132,-0.0244141,
1.1325,-0.0323486,
1.133,-0.0772095,
1.1335,-0.113983,
1.134,-0.0683594,
1.1345,0.0259399,
1.135,0.0831604,
1.1355,0.0813293,
1.136,0.0622559,
1.1365,0.0524902,
1.137,0.0541687,
1.1375,0.0524902,
1.138,0.0338745,
1.1385,-0.00411987,
1.139,-0.045929,
1.1395,-0.0802612,
1.14,-0.0862122,
1.1405,-0.0527954,
1.141,0.00549316,
1.1415,0.0602722,
1.142,0.0679016,
1.1425,0.0288391,
1.143,-0.0144958,
1.1435,-0.0280762,
1.144,-0.0288391,
1.1445,-0.0450134,
1.145,-0.0602722,
1.1455,-0.0500488,
1.146,-0.0184631,
1.1465,0.000457764,
1.147,-0.0239563,
1.1475,-0.0592041,
1.148,-0.0631714,
1.1485,-0.0448608,
1.149,-0.03479,
1.1495,-0.0430298,
1.15,-0.0593567,
1.1505,-0.0645447,
1.151,-0.0619507,
1.1515,-0.0550842,
1.152,-0.0323486,
1.1525,0.0175476,
1.153,0.0578308,
1.1535,0.0671387,
1.154,0.0161743,
1.1545,-0.0793457,
1.155,-0.139923,
1.1555,-0.116882,
1.156,-0.0268555,
1.1565,0.0617981,
1.157,0.0765991,
1.1575,0.0378418,
1.158,0.0215149,
1.1585,0.0396729,
1.159,0.0465393,
1.1595,0.0244141,
1.16,0.00106812,
1.1605,-0.00747681,
1.161,-0.00961304,
1.1615,-0.0250244,
1.162,-0.0465393,
1.1625,-0.0872803,
1.163,-0.170135,
1.1635,-0.247345,
1.164,-0.263824,
1.1645,-0.215912,
1.165,-0.140381,
1.1655,-0.0643921,
1.166,0.0558472,
1.1665,0.22583,
1.167,0.315094,
1.1675,0.243683,
1.168,0.118408,
1.1685,0.0627136,
1.169,0.0717163,
1.1695,0.0782776,
1.17,0.0764465,
1.1705,0.0846863,
1.171,0.0845337,
1.1715,0.0538635,
1.172,0.0106812,
1.1725,-0.038147,
1.173,-0.0808716,
1.1735,-0.065155,
1.174,0.00228882,
1.1745,0.0978088,
1.175,0.188904,
1.1755,0.23819,
1.176,0.238495,
1.1765,0.193176,
1.177,0.118713,
1.1775,0.0758362,
1.178,0.0956726,
1.1785,0.13031,
1.179,0.134583,
1.1795,0.0946045,
1.18,0.0172424,
1.1805,-0.0491333,
1.181,-0.052948,
1.1815,0.000457764,
1.182,0.0402832,
1.1825,0.0125122,
1.183,-0.0386047,
1.1835,-0.0762939,
1.184,-0.111847,
1.1845,-0.148621,
1.185,-0.161743,
1.1855,-0.161743,
1.186,-0.183868,
1.1865,-0.200195,
1.187,-0.174255,
1.1875,-0.113373,
1.188,-0.0860596,
1.1885,-0.116577,
1.189,-0.13092,
1.1895,-0.104065,
1.19,-0.078125,
1.1905,-0.0689697,
1.191,-0.0341797,
1.1915,0.0126648,
1.192,0.0259399,
1.1925,0.030365,
1.193,0.0796509,
1.1935,0.151825,
1.194,0.184479,
1.1945,0.188751,
1.195,0.182648,
1.1955,0.132446,
1.196,0.0604248,
1.1965,0.0469971,
1.197,0.0994873,
1.1975,0.14328,
1.198,0.118866,
1.1985,0.0669861,
1.199,0.0286865,
1.1995,0.00534058,
1.2,0.0106812,
1.2005,0.0205994,
1.201,-0.0193787,
1.2015,-0.0863647,
1.202,-0.113373,
1.2025,-0.102386,
1.203,-0.0958252,
1.2035,-0.0810242,
1.204,-0.0297546,
1.2045,0.0370789,
1.205,0.0698853,
1.2055,0.0617981,
1.206,0.0318909,
1.2065,0.00274658,
1.207,-0.0338745,
1.2075,-0.0820923,
1.208,-0.132141,
1.2085,-0.159607,
1.209,-0.138092,
1.2095,-0.118103,
1.21,-0.155182,
1.2105,-0.185547,
1.211,-0.172424,
1.2115,-0.129242,
1.212,-0.0500488,
1.2125,0.038147,
1.213,0.102997,
1.2135,0.127869,
1.214,0.0643921,
1.2145,-0.0401306,
1.215,-0.027771,
1.2155,0.126801,
1.216,0.260315,
1.2165,0.252075,
1.217,0.148315,
1.2175,0.0622559,
1.218,0.00869751,
1.2185,-0.0495911,
1.219,-0.105591,
1.2195,-0.157776,
1.22,-0.199432,
1.2205,-0.197449,
1.221,-0.154877,
1.2215,-0.110168,
1.222,-0.0804138,
1.2225,-0.067749,
1.223,-0.0512695,
1.2235,0.00915527,
1.224,0.119781,
1.2245,0.182495,
1.225,0.141754,
1.2255,0.0967407,
1.226,0.118103,
1.2265,0.152435,
1.227,0.14679,
1.2275,0.0920105,
1.228,0.0111389,
1.2285,-0.0230408,
1.229,0.00839233,
1.2295,0.0550842,
1.23,0.0856018,
1.2305,0.0878906,
1.231,0.0521851,
1.2315,0.0115967,
1.232,-0.00808716,
1.2325,-0.00747681,
1.233,0.00869751,
1.2335,0.0445557,
1.234,0.0997925,
1.2345,0.125732,
1.235,0.0978088,
1.2355,0.0445557,
1.236,0.0062561,
1.2365,-0.00656128,
1.237,-0.0218201,
1.2375,-0.0430298,
1.238,-0.0572205,
1.2385,-0.059967,
1.239,-0.0505066,
1.2395,-0.0323486,
1.24,-0.0335693,
1.2405,-0.0619507,
1.241,-0.0871277,
1.2415,-0.0889587,
1.242,-0.0788879,
1.2425,-0.0785828,
1.243,-0.100403,
1.2435,-0.143127,
1.244,-0.169525,
1.2445,-0.146179,
1.245,-0.100403,
1.2455,-0.0485229,
1.246,-0.0050354,
1.2465,0.0213623,
1.247,0.0300598,
1.2475,0.0166321,
1.248,0.00839233,
1.2485,0.00396729,
1.249,-0.0135803,
1.2495,-0.0164795,
1.25,0.00152588,
1.2505,0.0209045,
1.251,0.0289917,
1.2515,0.0465393,
1.252,0.0817871,
1.2525,0.101166,
1.253,0.0915527,
1.2535,0.0616455,
1.254,0.0201416,
1.2545,-0.0177002,
1.255,-0.0444031,
1.2555,-0.0732422,
1.256,-0.104523,
1.2565,-0.120087,
1.257,-0.115204,
1.2575,-0.0993347,
1.258,-0.0540161,
1.2585,0.043335,
1.259,0.135193,
1.2595,0.154724,
1.26,0.100861,
1.2605,0.0102234,
1.261,-0.0723267,
1.2615,-0.0997925,
1.262,-0.0561523,
1.2625,0.0132751,
1.263,0.0691223,
1.2635,0.118103,
1.264,0.133362,
1.2645,0.0708008,
1.265,0.0146484,
1.2655,0.0408936,
1.266,0.102386,
1.2665,0.137329,
1.267,0.14801,
1.2675,0.143738,
1.268,0.103607,
1.2685,0.012207,
1.269,-0.06073,
1.2695,-0.0657654,
1.27,-0.0485229,
1.2705,-0.0305176,
1.271,0.0120544,
1.2715,0.0527954,
1.272,0.0382996,
1.2725,-0.0062561,
1.273,-0.0344849,
1.2735,-0.063324,
1.274,-0.125885,
1.2745,-0.215912,
1.275,-0.301819,
1.2755,-0.365448,
1.276,-0.397797,
1.2765,-0.37735,
1.277,-0.337982,
1.2775,-0.335846,
1.278,-0.335541,
1.2785,-0.269012,
1.279,-0.0813293,
1.2795,0.141449,
1.28,0.249176,
1.2805,0.254059,
1.281,0.262146,
1.2815,0.299072,
1.282,0.329895,
1.2825,0.364075,
1.283,0.42984,
1.2835,0.47226,
1.284,0.441895,
1.2845,0.343933,
1.285,0.20752,
1.2855,0.0982666,
1.286,0.0401306,
1.2865,0.0123596,
1.287,-0.00320435,
1.2875,-0.0175476,
1.288,-0.0357056,
1.2885,-0.0582886,
1.289,-0.067749,
1.2895,-0.0587463,
1.29,-0.0453186,
1.2905,-0.0430298,
1.291,-0.0520325,
1.2915,-0.0578308,
1.292,-0.0617981,
1.2925,-0.0639343,
1.293,-0.0578308,
1.2935,-0.0456238,
1.294,-0.0379944,
1.2945,-0.0382996,
1.295,-0.0502014,
1.2955,-0.0746155,
1.296,-0.0942993,
1.2965,-0.0912476,
1.297,-0.0700378,
1.2975,-0.0434875,
1.298,-0.0285339,
1.2985,-0.0357056,
1.299,-0.0663757,
1.2995,-0.102539,
1.3,-0.123138,
1.3005,-0.112152,
1.301,-0.0819397,
1.3015,-0.065918,
1.302,-0.0822449,
1.3025,-0.115967,
1.303,-0.12146,
1.3035,-0.088501,
1.304,-0.0387573,
1.3045,0.0137329,
1.305,0.0411987,
1.3055,0.0332642,
1.306,0.0178528,
1.3065,0.00823975,
1.307,-0.012207,
1.3075,-0.0375366,
1.308,-0.0505066,
1.3085,-0.0476074,
1.309,-0.0436401,
1.3095,-0.0491333,
1.31,-0.0706482,
1.3105,-0.0854492,
1.311,-0.065155,
1.3115,-0.0271606,
1.312,-0.0105286,
1.3125,-0.0106812,
1.313,0.010376,
1.3135,0.0627136,
1.314,0.109558,
1.3145,0.0968933,
1.315,0.0328064,
1.3155,-0.0216675,
1.316,-0.0363159,
1.3165,-0.0205994,
1.317,-0.00930786,
1.3175,-0.0350952,
1.318,-0.0686646,
1.3185,-0.0750732,
1.319,-0.0714111,
1.3195,-0.0564575,
1.32,-0.0297546,
1.3205,-0.00320435,
1.321,0.0260925,
1.3215,0.0675964,
1.322,0.127106,
1.3225,0.179901,
1.323,0.196533,
1.3235,0.158386,
1.324,0.0709534,
1.3245,-0.0143433,
1.325,-0.0657654,
1.3255,-0.0869751,
1.326,-0.100708,
1.3265,-0.0920105,
1.327,-0.0442505,
1.3275,0.0331116,
1.328,0.090332,
1.3285,0.0982666,
1.329,0.075531,
1.3295,0.0390625,
1.33,0.0140381,
1.3305,0.00427246,
1.331,-0.00213623,
1.3315,0.00564575,
1.332,0.00778198,
1.3325,-0.00610352,
1.333,-0.0154114,
1.3335,-0.00717163,
1.334,0.0170898,
1.3345,0.0521851,
1.335,0.0669861,
1.3355,0.0500488,
1.336,0.0184631,
1.3365,-0.0117493,
1.337,-0.0193787,
1.3375,-0.00396729,
1.338,0.00839233,
1.3385,0.00152588,
1.339,-0.0111389,
1.3395,-0.00137329,
1.34,0.0231934,
1.3405,0.0325012,
1.341,0.00854492,
1.3415,-0.0230408,
1.342,-0.0302124,
1.3425,-0.0422668,
1.343,-0.0549316,
1.3435,-0.0315857,
1.344,-0.00305176,
1.3445,-0.00427246,
1.345,-0.0117493,
1.3455,-0.00717163,
1.346,-0.0250244,
1.3465,-0.0741577,
1.347,-0.116882,
1.3475,-0.127411,
1.348,-0.122833,
1.3485,-0.105743,
1.349,-0.0720215,
1.3495,-0.0262451,
1.35,0.012207,
1.3505,0.0233459,
1.351,-0.00396729,
1.3515,-0.0457764,
1.352,-0.0219727,
1.3525,0.131836,
1.353,0.306244,
1.3535,0.353394,
1.354,0.288239,
1.3545,0.191803,
1.355,0.101166,
1.3555,0.0369263,
1.356,0.0236511,
1.3565,0.0431824,
1.357,0.0494385,
1.3575,0.0369263,
1.358,0.0216675,
1.3585,0.030365,
1.359,0.0897217,
1.3595,0.140076,
1.36,0.115967,
1.3605,0.0616455,
1.361,0.0233459,
1.3615,-0.00701904,
1.362,-0.032196,
1.3625,-0.0408936,
1.363,-0.0386047,
1.3635,-0.0469971,
1.364,-0.0717163,
1.3645,-0.118561,
1.365,-0.168915,
1.3655,-0.187378,
1.366,-0.184326,
1.3665,-0.180664,
1.367,-0.165863,
1.3675,-0.133667,
1.368,-0.127869,
1.3685,-0.170746,
1.369,-0.208893,
1.3695,-0.207062,
1.37,-0.17395,
1.3705,-0.148315,
1.371,-0.135498,
1.3715,-0.117645,
1.372,-0.105743,
1.3725,-0.0999451,
1.373,-0.012207,
1.3735,0.213928,
1.374,0.450592,
1.3745,0.516205,
1.375,0.395813,
1.3755,0.203247,
1.376,0.0418091,
1.3765,-0.0247192,
1.377,-0.0260925,
1.3775,-0.0317383,
1.378,-0.0578308,
1.3785,-0.0682068,
1.379,0.00183105,
1.3795,0.131073,
1.38,0.223846,
1.3805,0.252533,
1.381,0.24292,
1.3815,0.203247,
1.382,0.127258,
1.3825,0.0552368,
1.383,0.0201416,
1.3835,0.0062561,
1.384,0.00198364,
1.3845,0.00549316,
1.385,0.0161743,
1.3855,0.0205994,
1.386,0.0105286,
1.3865,-0.0128174,
1.387,-0.0546265,
1.3875,-0.117188,
1.388,-0.15564,
1.3885,-0.154419,
1.389,-0.143585,
1.3895,-0.131836,
1.39,-0.106964,
1.3905,-0.0912476,
1.391,-0.101471,
1.3915,-0.0898743,
1.392,-0.0305176,
1.3925,0.0311279,
1.393,0.0566101,
1.3935,0.0662231,
1.394,0.067749,
1.3945,0.0485229,
1.395,0.00488281,
1.3955,-0.0361633,
1.396,-0.0387573,
1.3965,-0.0262451,
1.397,-0.0274658,
1.3975,-0.0234985,
1.398,-0.0190735,
1.3985,-0.0357056,
1.399,-0.0556946,
1.3995,-0.0688171,
1.4,-0.0852966,
1.4005,-0.0914001,
1.401,-0.0808716,
1.4015,-0.0669861,
1.402,-0.052948,
1.4025,-0.0505066,
1.403,-0.0527954,
1.4035,-0.0376892,
1.404,-0.0105286,
1.4045,0.00579834,
1.405,0.0123596,
1.4055,0.0108337,
1.406,-0.012207,
1.4065,-0.0437927,
1.407,-0.065155,
1.4075,-0.075531,
1.408,-0.0798035,
1.4085,-0.070343,
1.409,-0.0572205,
1.4095,-0.0527954,
1.41,-0.0637817,
1.4105,-0.0746155,
1.411,-0.0648499,
1.4115,-0.0531006,
1.412,-0.0605774,
1.4125,-0.0657654,
1.413,-0.0547791,
1.4135,-0.0416565,
1.414,-0.0457764,
1.4145,-0.059967,
1.415,-0.0566101,
1.4155,-0.0379944,
1.416,-0.0309753,
1.4165,-0.0184631,
1.417,0.015564,
1.4175,0.0427246,
1.418,0.0306702,
1.4185,0.0102234,
1.419,0.0268555,
1.4195,0.0622559,
1.42,0.0866699,
1.4205,0.0856018,
1.421,0.0663757,
1.4215,0.0553894,
1.422,0.0367737,
1.4225,0.00778198,
1.423,-0.0111389,
1.4235,-0.0196838,
1.424,-0.0210571,
1.4245,-0.0152588,
1.425,-0.00732422,
1.4255,0.0175476,
1.426,0.055542,
1.4265,0.0680542,
1.427,0.0549316,
1.4275,0.0376892,
1.428,0.0234985,
1.4285,0.0108337,
1.429,-0.00686646,
1.4295,-0.0260925,
1.43,-0.0369263,
1.4305,-0.0300598,
1.431,-0.00961304,
1.4315,0.00534058,
1.432,0.00900269,
1.4325,0.0201416,
1.433,0.0306702,
1.4335,0.0270081,
1.434,0.00946045,
1.4345,0.00213623,
1.435,0.0120544,
1.4355,0.0241089,
1.436,0.0296021,
1.4365,0.0177002,
1.437,0.00244141,
1.4375,-0.00183105,
1.438,-0.00976563,
1.4385,-0.042572,
1.439,-0.0680542,
1.4395,-0.0614929,
1.44,-0.0527954,
1.4405,-0.0524902,
1.441,-0.0334167,
1.4415,0.00823975,
1.442,0.0701904,
1.4425,0.133362,
1.443,0.158081,
1.4435,0.138397,
1.444,0.105591,
1.4445,0.0753784,
1.445,0.042572,
1.4455,0.0190735,
1.446,0.0109863,
1.4465,0.0038147,
1.447,-0.014801,
1.4475,-0.035553,
1.448,-0.04776,
1.4485,-0.043335,
1.449,-0.0160217,
1.4495,0.0349426,
1.45,0.0628662,
1.4505,0.0566101,
1.451,0.0411987,
1.4515,0.0158691,
1.452,-0.0201416,
1.4525,-0.0473022,
1.453,-0.030365,
1.4535,-0.00198364,
1.454,-0.00411987,
1.4545,-0.00640869,
1.455,-0.0184631,
1.4555,-0.068512,
1.456,-0.115967,
1.4565,-0.133057,
1.457,-0.16922,
1.4575,-0.251007,
1.458,-0.299988,
1.4585,-0.269165,
1.459,-0.171509,
1.4595,0.00793457,
1.46,0.207977,
1.4605,0.284576,
1.461,0.226898,
1.4615,0.136719,
1.462,0.116577,
1.4625,0.196991,
1.463,0.300598,
1.4635,0.35675,
1.464,0.370331,
1.4645,0.356445,
1.465,0.327148,
1.4655,0.261536,
1.466,0.158234,
1.4665,0.0601196,
1.467,-0.000457764,
1.4675,-0.0268555,
1.468,-0.0410461,
1.4685,-0.0502014,
1.469,-0.0579834,
1.4695,-0.0675964,
1.47,-0.0602722,
1.4705,-0.0274658,
1.471,-0.00320435,
1.4715,-0.00579834,
1.472,-0.0160217,
1.4725,-0.0231934,
1.473,-0.0370789,
1.4735,-0.0556946,
1.474,-0.0596619,
1.4745,-0.0592041,
1.475,-0.0688171,
1.4755,-0.0787354,
1.476,-0.0790405,
1.4765,-0.0852966,
1.477,-0.115662,
1.4775,-0.143433,
1.478,-0.129089,
1.4785,-0.0909424,
1.479,-0.055542,
1.4795,-0.0382996,
1.48,-0.0306702,
1.4805,-0.0265503,
1.481,-0.0242615,
1.4815,-0.0178528,
1.482,-0.0167847,
1.4825,-0.0256348,
1.483,-0.0364685,
1.4835,-0.0466919,
1.484,-0.0621033,
1.4845,-0.0680542,
1.485,-0.0624084,
1.4855,-0.0572205,
1.486,-0.0550842,
1.4865,-0.0561523,
1.487,-0.063324,
1.4875,-0.070343,
1.488,-0.0669861,
1.4885,-0.0630188,
1.489,-0.063324,
1.4895,-0.0549316,
1.49,-0.0559998,
1.4905,-0.0631714,
1.491,-0.0396729,
1.4915,0.00640869,
1.492,0.0187683,
1.4925,-0.0184631,
1.493,-0.0544739,
1.4935,-0.0320435,
1.494,0.0283813,
1.4945,0.0575256,
1.495,0.0617981,
1.4955,0.0622559,
1.496,0.0553894,
1.4965,0.0326538,
1.497,0.00640869,
1.4975,-0.00564575,
1.498,-0.00930786,
1.4985,-0.0146484,
1.499,-0.0172424,
1.4995,-0.00854492,
1.5,-0.00411987,
1.5005,-0.00305176,
1.501,0.01297,
1.5015,0.0335693,
1.502,0.0379944,
1.5025,0.035553,
1.503,0.0376892,
1.5035,0.043335,
1.504,0.0253296,
1.5045,-0.0222778,
1.505,-0.0650024,
1.5055,-0.0744629,
1.506,-0.0608826,
1.5065,-0.0498962,
1.507,-0.0387573,
1.5075,-0.0230408,
1.508,-0.0177002,
1.5085,-0.0312805,
1.509,-0.0488281,
1.5095,-0.04776,
1.51,-0.0170898,
1.5105,0.0268555,
1.511,0.0486755,
1.5115,0.039978,
1.512,0.0180054,
1.5125,0.00457764,
1.513,0.0050354,
1.5135,0.00518799,
1.514,-0.00244141,
1.5145,-0.00686646,
1.515,-0.00671387,
1.5155,-0.00320435,
1.516,0.0038147,
1.5165,0.0175476,
1.517,0.0267029,
1.5175,0.0236511,
1.518,0.0132751,
1.5185,0.00656128,
1.519,0.00595093,
1.5195,0.00228882,
1.52,-0.00274658,
1.5205,0.000305176,
1.521,0.00717163,
1.5215,-0.000610352,
1.522,-0.0183105,
1.5225,-0.027771,
1.523,-0.0274658,
1.5235,-0.0231934,
1.524,-0.0183105,
1.5245,-0.0238037,
1.525,-0.020752,
1.5255,0.0143433,
1.526,0.0531006,
1.5265,0.052948,
1.527,0.0216675,
1.5275,-0.0201416,
1.528,-0.0598145,
1.5285,-0.0692749,
1.529,-0.0601196,
1.5295,-0.0575256,
1.53,-0.0546265,
1.5305,-0.0392151,
1.531,-0.0204468,
1.5315,-0.00930786,
1.532,0.00152588,
1.5325,0.0062561,
1.533,0.000152588,
1.5335,0.00793457,
1.534,0.0273132,
1.5345,0.0311279,
1.535,0.0254822,
1.5355,0.0286865,
1.536,0.0172424,
1.5365,-0.0114441,
1.537,-0.0343323,
1.5375,-0.0389099,
1.538,-0.0288391,
1.5385,-0.0219727,
1.539,-0.0135803,
1.5395,0.0259399,
1.54,0.0956726,
1.5405,0.144653,
1.541,0.141449,
1.5415,0.115662,
1.542,0.0892639,
1.5425,0.0733948,
1.543,0.0718689,
1.5435,0.0520325,
1.544,0.00869751,
1.5445,-0.00473022,
1.545,0.0292969,
1.5455,0.0614929,
1.546,0.06073,
1.5465,0.0375366,
1.547,0.0126648,
1.5475,0.000152588,
1.548,-0.0109863,
1.5485,-0.0177002,
1.549,-0.0038147,
1.5495,0.0259399,
1.55,0.042572,
1.5505,0.0337219,
1.551,0.00854492,
1.5515,-0.0212097,
1.552,-0.0410461,
1.5525,-0.0509644,
1.553,-0.0498962,
1.5535,-0.0360107,
1.554,-0.0167847,
1.5545,-0.0163269,
1.555,-0.0395203,
1.5555,-0.0584412,
1.556,-0.057373,
1.5565,-0.0411987,
1.557,-0.0325012,
1.5575,-0.0395203,
1.558,-0.0534058,
1.5585,-0.0588989,
1.559,-0.0498962,
1.5595,-0.0361633,
1.56,-0.0335693,
1.5605,-0.0437927,
1.561,-0.0460815,
1.5615,-0.027771,
1.562,0.00534058,
1.5625,0.0259399,
1.563,0.0352478,
1.5635,0.0509644,
1.564,0.0720215,
1.5645,0.071106,
1.565,0.0384521,
1.5655,-0.0157166,
1.566,-0.0532532,
1.5665,-0.0439453,
1.567,-0.0428772,
1.5675,-0.0645447,
1.568,-0.0723267,
1.5685,-0.0601196,
1.569,-0.0492859,
1.5695,-0.0331116,
1.57,-0.0141907,
1.5705,-0.0137329,
1.571,-0.0292969,
1.5715,0.00137329,
1.572,0.0769043,
1.5725,0.115967,
1.573,0.0956726,
1.5735,0.0791931,
1.574,0.0816345,
1.5745,0.0772095,
1.575,0.0546265,
1.5755,0.0299072,
1.576,0.035553,
1.5765,0.0563049,
1.577,0.0721741,
1.5775,0.0860596,
1.578,0.088501,
1.5785,0.0683594,
1.579,0.0296021,
1.5795,-0.00564575,
1.58,-0.0196838,
1.5805,-0.0228882,
1.581,-0.0204468,
1.5815,-0.0115967,
1.582,-0.0125122,
1.5825,-0.0257874,
1.583,-0.0436401,
1.5835,-0.0482178,
1.584,-0.0437927,
1.5845,-0.0434875,
1.585,-0.0460815,
1.5855,-0.0471497,
1.586,-0.043335,
1.5865,-0.0541687,
1.587,-0.0805664,
1.5875,-0.0958252,
1.588,-0.0761414,
1.5885,-0.0300598,
1.589,0.0146484,
1.5895,0.0323486,
1.59,0.0196838,
1.5905,0.00305176,
1.591,0.00152588,
1.5915,0.0288391,
1.592,0.0814819,
1.5925,0.101929,
1.593,0.059967,
1.5935,0.0172424,
1.594,0.0180054,
1.5945,0.0343323,
1.595,0.0294495,
1.5955,0.00854492,
1.596,-0.0215149,
1.5965,-0.0471497,
1.597,-0.0463867,
1.5975,-0.0193787,
1.598,-0.00167847,
1.5985,-0.00869751,
1.599,-0.0196838,
1.5995,-0.0228882,
1.6,-0.0285339,
1.6005,-0.0465393,
1.601,-0.0675964,
1.6015,-0.0794983,
1.602,-0.0750732,
1.6025,-0.0517273,
1.603,-0.00610352,
1.6035,0.0308228,
1.604,0.0445557,
1.6045,0.0450134,
1.605,0.038147,
1.6055,0.020752,
1.606,-0.00350952,
1.6065,-0.0190735,
1.607,-0.0202942,
1.6075,-0.022583,
1.608,-0.0250244,
1.6085,-0.0292969,
1.609,-0.0369263,
1.6095,-0.0360107,
1.61,-0.0144958,
1.6105,-0.00473022,
1.611,-0.0300598,
1.6115,-0.0563049,
1.612,-0.0453186,
1.6125,-0.00686646,
1.613,0.0227356,
1.6135,0.0363159,
1.614,0.0465393,
1.6145,0.0608826,
1.615,0.0610352,
1.6155,0.0546265,
1.616,0.045166,
1.6165,0.0215149,
1.617,-0.0189209,
1.6175,-0.0598145,
1.618,-0.0688171,
1.6185,-0.0314331,
1.619,0.0163269,
1.6195,0.0352478,
1.62,0.0248718,
1.6205,0.0109863,
1.621,-0.00274658,
1.6215,-0.0160217,
1.622,-0.0283813,
1.6225,-0.0428772,
1.623,-0.0462341,
1.6235,-0.0492859,
1.624,-0.0598145,
1.6245,-0.0627136,
1.625,-0.0579834,
1.6255,-0.0350952,
1.626,-0.0109863,
1.6265,-0.0119019,
1.627,-0.0254822,
1.6275,-0.0276184,
1.628,-0.0221252,
1.6285,-0.0244141,
1.629,-0.0378418,
1.6295,-0.0532532,
1.63,-0.0616455,
1.6305,-0.0640869,
1.631,-0.0657654,
1.6315,-0.0704956,
1.632,-0.070343,
1.6325,-0.0488281,
1.633,0.00305176,
1.6335,0.0427246,
1.634,0.040741,
1.6345,0.0160217,
1.635,-0.00946045,
1.6355,-0.0297546,
1.636,-0.0462341,
1.6365,-0.0488281,
1.637,-0.0408936,
1.6375,-0.0254822,
1.638,-0.012207,
1.6385,-0.0190735,
1.639,-0.0242615,
1.6395,0.00747681,
1.64,0.0650024,
1.6405,0.108948,
1.641,0.117188,
1.6415,0.104065,
1.642,0.0897217,
1.6425,0.0715637,
1.643,0.0636292,
1.6435,0.0595093,
1.644,0.0511169,
1.6445,0.04776,
1.645,0.0587463,
1.6455,0.0798035,
1.646,0.0801086,
1.6465,0.0559998,
1.647,0.0382996,
1.6475,0.0398254,
1.648,0.0344849,
1.6485,0.0126648,
1.649,0.00411987,
1.6495,0.019989,
1.65,0.0302124,
1.6505,0.0236511,
1.651,0.00167847,
1.6515,-0.0315857,
1.652,-0.0654602,
1.6525,-0.0886536,
1.653,-0.0985718,
1.6535,-0.10498,
1.654,-0.114288,
1.6545,-0.111084,
1.655,-0.0842285,
1.6555,-0.0543213,
1.656,-0.0474548,
1.6565,-0.0561523,
1.657,-0.0410461,
1.6575,0.019989,
1.658,0.110016,
1.6585,0.194855,
1.659,0.246429,
1.6595,0.232697,
1.66,0.163116,
1.6605,0.0796509,
1.661,0.0396729,
1.6615,0.0520325,
1.662,0.0674438,
1.6625,0.0474548,
1.663,0.00762939,
1.6635,-0.0222778,
1.664,-0.0306702,
1.6645,-0.0205994,
1.665,0.000305176,
1.6655,0.0378418,
1.666,0.0634766,
1.6665,0.0500488,
1.667,0.00335693,
1.6675,-0.0360107,
1.668,-0.0418091,
1.6685,-0.0218201,
1.669,-0.0149536,
1.6695,-0.0337219,
1.67,-0.052948,
1.6705,-0.0588989,
1.671,-0.0566101,
1.6715,-0.0540161,
1.672,-0.0540161,
1.6725,-0.0297546,
1.673,0.00213623,
1.6735,-0.0215149,
1.674,-0.0733948,
1.6745,-0.071106,
1.675,-0.0158691,
1.6755,0.0350952,
1.676,0.0418091,
1.6765,0.0152588,
1.677,-0.0151062,
1.6775,-0.0410461,
1.678,-0.0532532,
1.6785,-0.0497437,
1.679,-0.0489807,
1.6795,-0.0602722,
1.68,-0.0590515,
1.6805,-0.0468445,
1.681,-0.0559998,
1.6815,-0.0939941,
1.682,-0.120087,
1.6825,-0.0909424,
1.683,-0.0134277,
1.6835,0.0611877,
1.684,0.110016,
1.6845,0.120544,
1.685,0.0979614,
1.6855,0.0553894,
1.686,0.0233459,
1.6865,0.0154114,
1.687,0.00869751,
1.6875,0.00930786,
1.688,0.0187683,
1.6885,0.0213623,
1.689,0.00518799,
1.6895,-0.0135803,
1.69,-0.0117493,
1.6905,-0.0131226,
1.691,-0.0242615,
1.6915,-0.0292969,
1.692,-0.0315857,
1.6925,-0.0296021,
1.693,-0.0201416,
1.6935,0.000762939,
1.694,0.0326538,
1.6945,0.06073,
1.695,0.0715637,
1.6955,0.0526428,
1.696,0.0112915,
1.6965,-0.0140381,
1.697,-0.0111389,
1.6975,-0.0109863,
1.698,-0.0354004,
1.6985,-0.0570679,
1.699,-0.0558472,
1.6995,-0.0448608,
1.7,-0.0265503,
1.7005,0.00518799,
1.701,0.0227356,
1.7015,-0.0102234,
1.702,-0.0827026,
1.7025,-0.132141,
1.703,-0.0909424,
1.7035,0.000152588,
1.704,0.0541687,
1.7045,0.0839233,
1.705,0.114136,
1.7055,0.10498,
1.706,0.0552368,
1.7065,0.0161743,
1.707,-0.00473022,
1.7075,-0.0241089,
1.708,-0.0476074,
1.7085,-0.0523376,
1.709,-0.0468445,
1.7095,-0.0512695,
1.71,-0.052948,
1.7105,-0.0418091,
1.711,-0.0238037,
1.7115,-0.0180054,
1.712,-0.014801,
1.7125,-0.000915527,
1.713,0.0120544,
1.7135,0.0163269,
1.714,0.00946045,
1.7145,-0.00717163,
1.715,-0.0198364,
1.7155,-0.0161743,
1.716,-0.00549316,
1.7165,-0.00534058,
1.717,-0.0157166,
1.7175,-0.0224304,
1.718,-0.020752,
1.7185,-0.012207,
1.719,-0.0112915,
1.7195,-0.0164795,
1.72,-0.0238037,
1.7205,-0.0364685,
1.721,-0.0427246,
1.7215,-0.0325012,
1.722,-0.0131226,
1.7225,-0.000762939,
1.723,-0.000762939,
1.7235,-0.00778198,
1.724,-0.00762939,
1.7245,0.00167847,
1.725,0.00442505,
1.7255,-0.0154114,
1.726,-0.0645447,
1.7265,-0.123749,
1.727,-0.142212,
1.7275,-0.0769043,
1.728,0.0257874,
1.7285,0.0894165,
1.729,0.108643,
1.7295,0.0935364,
1.73,0.0447083,
1.7305,-0.0111389,
1.731,-0.0428772,
1.7315,-0.0422668,
1.732,-0.0318909,
1.7325,-0.0390625,
1.733,-0.0462341,
1.7335,-0.0422668,
1.734,-0.0404358,
1.7345,-0.0683594,
1.735,-0.114136,
1.7355,-0.113373,
1.736,-0.0434875,
1.7365,0.0605774,
1.737,0.140381,
1.7375,0.158539,
1.738,0.127411,
1.7385,0.0720215,
1.739,0.0265503,
1.7395,0.0163269,
1.74,0.027771,
1.7405,0.0308228,
1.741,0.0292969,
1.7415,0.0370789,
1.742,0.0361633,
1.7425,0.0222778,
1.743,0.0222778,
1.7435,0.0312805,
1.744,0.0372314,
1.7445,0.0640869,
1.745,0.11261,
1.7455,0.138092,
1.746,0.11322,
1.7465,0.0650024,
1.747,0.0254822,
1.7475,0.00579834,
1.748,0.00137329,
1.7485,0.00274658,
1.749,0.00610352,
1.7495,0.00717163,
1.75,0.00793457,
1.7505,0.00701904,
1.751,-0.00106812,
1.7515,-0.0189209,
1.752,-0.0332642,
1.7525,-0.0413513,
1.753,-0.0416565,
1.7535,-0.0402832,
1.754,-0.0483704,
1.7545,-0.0654602,
1.755,-0.0836182,
1.7555,-0.0959778,
1.756,-0.106964,
1.7565,-0.124512,
1.757,-0.147552,
1.7575,-0.175629,
1.758,-0.195007,
1.7585,-0.181427,
1.759,-0.119171,
1.7595,-0.0416565,
1.76,0.0218201,
1.7605,0.0701904,
1.761,0.0883484,
1.7615,0.0782776,
1.762,0.0645447,
1.7625,0.0634766,
1.763,0.0695801,
1.7635,0.104828,
1.764,0.158997,
1.7645,0.171204,
1.765,0.115051,
1.7655,0.0367737,
1.766,-0.00457764,
1.7665,0.00946045,
1.767,0.0598145,
1.7675,0.124969,
1.768,0.174103,
1.7685,0.184631,
1.769,0.161438,
1.7695,0.121613,
1.77,0.0813293,
1.7705,0.0569153,
1.771,0.0570679,
1.7715,0.0552368,
1.772,0.0332642,
1.7725,0.00534058,
1.773,-0.0117493,
1.7735,-0.00854492,
1.774,0.00213623,
1.7745,0.0062561,
1.775,-0.00167847,
1.7755,-0.0120544,
1.776,-0.0210571,
1.7765,-0.0234985,
1.777,-0.0205994,
1.7775,-0.032196,
1.778,-0.0520325,
1.7785,-0.0614929,
1.779,-0.0558472,
1.7795,-0.037384,
1.78,-0.0239563,
1.7805,-0.0231934,
1.781,-0.0312805,
1.7815,-0.0402832,
1.782,-0.0442505,
1.7825,-0.0471497,
1.783,-0.0439453,
1.7835,-0.0422668,
1.784,-0.040741,
1.7845,-0.0363159,
1.785,-0.0364685,
1.7855,-0.0480652,
1.786,-0.0456238,
1.7865,-0.0309753,
1.787,-0.0292969,
1.7875,-0.0437927,
1.788,-0.0694275,
1.7885,-0.0746155,
1.789,-0.0402832,
1.7895,0.00610352,
1.79,0.00457764,
1.7905,-0.0396729,
1.791,-0.08255,
1.7915,-0.0875854,
1.792,-0.0563049,
1.7925,-0.0178528,
1.793,0.00518799,
1.7935,0.020752,
1.794,0.0350952,
1.7945,0.0375366,
1.795,0.0294495,
1.7955,0.0112915,
1.796,-0.0132751,
1.7965,-0.030365,
1.797,-0.0444031,
1.7975,-0.0413513,
1.798,-0.0137329,
1.7985,0.0105286,
1.799,0.0178528,
1.7995,0.0120544,
1.8,-0.0012207,
1.8005,-0.00869751,
1.801,0.00167847,
1.8015,0.00640869,
1.802,-0.0109863,
1.8025,-0.045166,
1.803,-0.06073,
1.8035,-0.0561523,
1.804,-0.0450134,
1.8045,-0.063324,
1.805,-0.0874329,
1.8055,-0.0317383,
1.806,0.0709534,
1.8065,0.111389,
1.807,0.0724792,
1.8075,0.00778198,
1.808,-0.050354,
1.8085,-0.100708,
1.809,-0.13855,
1.8095,-0.119476,
1.81,-0.0436401,
1.8105,0.0247192,
1.811,0.0613403,
1.8115,0.0849915,
1.812,0.0917053,
1.8125,0.0648499,
1.813,0.0357056,
1.8135,0.027771,
1.814,0.0212097,
1.8145,0.00137329,
1.815,-0.00839233,
1.8155,-0.00244141,
1.816,-0.00289917,
1.8165,-0.00900269,
1.817,-0.00564575,
1.8175,-0.000762939,
1.818,-0.00549316,
1.8185,-0.0161743,
1.819,-0.0227356,
1.8195,-0.015564,
1.82,-0.00152588,
1.8205,0.00244141,
1.821,-0.00473022,
1.8215,-0.00518799,
1.822,0.00259399,
1.8225,0.000762939,
1.823,-0.00762939,
1.8235,-0.00366211,
1.824,0.0108337,
1.8245,0.0108337,
1.825,-0.00991821,
1.8255,-0.030365,
1.826,-0.0367737,
1.8265,-0.0325012,
1.827,-0.0289917,
1.8275,-0.0279236,
1.828,-0.0195313,
1.8285,-0.00762939,
1.829,0.00442505,
1.8295,0.0126648,
1.83,0.00869751,
1.8305,-0.0012207,
1.831,-0.00396729,
1.8315,0.00427246,
1.832,0.00534058,
1.8325,-0.00350952,
1.833,-0.0169373,
1.8335,-0.0306702,
1.834,-0.0387573,
1.8345,-0.0431824,
1.835,-0.0442505,
1.8355,-0.0132751,
1.836,0.035553,
1.8365,0.0531006,
1.837,0.0328064,
1.8375,0.00198364,
1.838,0.000305176,
1.8385,0.0262451,
1.839,0.0382996,
1.8395,0.0343323,
1.84,0.0352478,
1.8405,0.0305176,
1.841,0.0120544,
1.8415,-0.0160217,
1.842,-0.0495911,
1.8425,-0.0784302,
1.843,-0.0839233,
1.8435,-0.0471497,
1.844,0.018158,
1.8445,0.0944519,
1.845,0.157776,
1.8455,0.167542,
1.846,0.128632,
1.8465,0.0813293,
1.847,0.045166,
1.8475,0.0263977,
1.848,0.0210571,
1.8485,0.0137329,
1.849,0.00335693,
1.8495,-0.00473022,
1.85,-0.017395,
1.8505,-0.0276184,
1.851,-0.0247192,
1.8515,-0.0106812,
1.852,0.0012207,
1.8525,0.000305176,
1.853,-0.00793457,
1.8535,-0.0172424,
1.854,-0.0256348,
1.8545,-0.0267029,
1.855,-0.0216675,
1.8555,-0.0189209,
1.856,-0.0177002,
1.8565,-0.0164795,
1.857,-0.015564,
1.8575,-0.0154114,
1.858,-0.0164795,
1.8585,-0.0151062,
1.859,-0.00808716,
1.8595,-0.00579834,
1.86,-0.012207,
1.8605,-0.0222778,
1.861,-0.032196,
1.8615,-0.0364685,
1.862,-0.0317383,
1.8625,-0.0216675,
1.863,-0.0100708,
1.8635,0.00350952,
1.864,0.00854492,
1.8645,0.00640869,
1.865,-0.00350952,
1.8655,-0.0161743,
1.866,-0.0175476,
1.8665,-0.0108337,
1.867,-0.00427246,
1.8675,-0.00274658,
1.868,-0.00564575,
1.8685,-0.0088501,
1.869,-0.0128174,
1.8695,-0.0164795,
1.87,-0.0109863,
1.8705,0.00976563,
1.871,0.0302124,
1.8715,0.0292969,
1.872,0.0117493,
1.8725,-0.00228882,
1.873,-0.00869751,
1.8735,-0.0158691,
1.874,-0.025177,
1.8745,-0.0288391,
1.875,-0.0276184,
1.8755,-0.0187683,
1.876,-0.0088501,
1.8765,-0.00396729,
1.877,-0.00915527,
1.8775,-0.0215149,
1.878,-0.0366211,
1.8785,-0.055542,
1.879,-0.085144,
1.8795,-0.112915,
1.88,-0.113983,
1.8805,-0.0541687,
1.881,0.0286865,
1.8815,0.0523376,
1.882,0.0259399,
1.8825,0.0248718,
1.883,0.0508118,
1.8835,0.0559998,
1.884,0.0469971,
1.8845,0.0537109,
1.885,0.0616455,
1.8855,0.0534058,
1.886,0.045929,
1.8865,0.043335,
1.887,0.0279236,
1.8875,0.0135803,
1.888,0.0160217,
1.8885,0.0292969,
1.889,0.0523376,
1.8895,0.0712585,
1.89,0.0737,
1.8905,0.0636292,
1.891,0.0514221,
1.8915,0.032959,
1.892,0.0115967,
1.8925,-0.00244141,
1.893,-0.00579834,
1.8935,-0.00198364,
1.894,0.00778198,
1.8945,0.0154114,
1.895,0.0100708,
1.8955,-0.00137329,
1.896,-0.0137329,
1.8965,-0.0259399,
1.897,-0.0302124,
1.8975,-0.0260925,
1.898,-0.0187683,
1.8985,-0.0102234,
1.899,-0.00808716,
1.8995,-0.00823975,
1.9,-0.00961304,
1.9005,-0.0143433,
1.901,-0.0279236,
1.9015,-0.040741,
1.902,-0.050354,
1.9025,-0.0660706,
1.903,-0.0823975,
1.9035,-0.090332,
1.904,-0.0660706,
1.9045,-0.020752,
1.905,0.0143433,
1.9055,0.0230408,
1.906,0.0205994,
1.9065,0.0138855,
1.907,-0.00366211,
1.9075,-0.0210571,
1.908,-0.0271606,
1.9085,-0.0236511,
1.909,-0.0239563,
1.9095,-0.0274658,
1.91,-0.025177,
1.9105,-0.00839233,
1.911,0.0231934,
1.9115,0.0456238,
1.912,0.0379944,
1.9125,0.0201416,
1.913,0.0166321,
1.9135,0.0273132,
1.914,0.0283813,
1.9145,0.010376,
1.915,-0.00839233,
1.9155,-0.0166321,
1.916,-0.0137329,
1.9165,-0.00228882,
1.917,0.00335693,
1.9175,0.00289917,
1.918,-0.0012207,
1.9185,-0.0105286,
1.919,-0.0152588,
1.9195,-0.0131226,
1.92,-0.0180054,
1.9205,-0.0216675,
1.921,-0.0112915,
1.9215,0.0138855,
1.922,0.032959,
1.9225,0.0312805,
1.923,0.0286865,
1.9235,0.0268555,
1.924,0.0138855,
1.9245,0.0158691,
1.925,0.0289917,
1.9255,0.032196,
1.926,0.00717163,
1.9265,-0.00976563,
1.927,0.00976563,
1.9275,0.0332642,
1.928,0.0271606,
1.9285,0.00839233,
1.929,-0.00778198,
1.9295,-0.0180054,
1.93,-0.00289917,
1.9305,0.0241089,
1.931,0.027771,
1.9315,0.0131226,
1.932,0.00823975,
1.9325,0.0109863,
1.933,0.00213623,
1.9335,-0.0146484,
1.934,-0.0177002,
1.9345,-0.00656128,
1.935,-0.000457764,
1.9355,-0.00656128,
1.936,-0.019989,
1.9365,-0.0247192,
1.937,-0.0134277,
1.9375,-0.00274658,
1.938,-0.00976563,
1.9385,-0.0201416,
1.939,-0.0215149,
1.9395,-0.0169373,
1.94,-0.0154114,
1.9405,-0.018158,
1.941,-0.0241089,
1.9415,-0.0308228,
1.942,-0.0370789,
1.9425,-0.0354004,
1.943,-0.0350952,
1.9435,-0.052948,
1.944,-0.0753784,
1.9445,-0.0654602,
1.945,-0.0190735,
1.9455,0.0282288,
1.946,0.040741,
1.9465,0.0236511,
1.947,0.0109863,
1.9475,0.0123596,
1.948,0.0126648,
1.9485,0.00656128,
1.949,0.00137329,
1.9495,-0.00213623,
1.95,-0.0111389,
1.9505,-0.020752,
1.951,-0.0273132,
1.9515,-0.0299072,
1.952,-0.0286865,
1.9525,-0.0183105,
1.953,0.00289917,
1.9535,0.0326538,
1.954,0.052948,
1.9545,0.0598145,
1.955,0.0631714,
1.9555,0.0588989,
1.956,0.0415039,
1.9565,0.0257874,
1.957,0.0115967,
1.9575,-0.012207,
1.958,-0.0350952,
1.9585,-0.0395203,
1.959,-0.0354004,
1.9595,-0.0267029,
1.96,-0.0299072,
1.9605,-0.0263977,
1.961,0.00762939,
1.9615,0.0396729,
1.962,0.0401306,
1.9625,0.0288391,
1.963,0.0279236,
1.9635,0.0274658,
1.964,0.0184631,
1.9645,0.00762939,
1.965,0.00564575,
1.9655,0.010376,
1.966,0.0102234,
1.9665,0.00106812,
1.967,-0.00549316,
1.9675,-0.00930786,
1.968,-0.0115967,
1.9685,-0.00701904,
1.969,0.00274658,
1.9695,0.00595093,
1.97,0.00137329,
1.9705,-0.000762939,
1.971,0.00579834,
1.9715,0.00732422,
1.972,0.000305176,
1.9725,-0.00579834,
1.973,-0.0108337,
1.9735,-0.020752,
1.974,-0.0288391,
1.9745,-0.0292969,
1.975,-0.0268555,
1.9755,-0.0271606,
1.976,-0.0358582,
1.9765,-0.0424194,
1.977,-0.0444031,
1.9775,-0.0366211,
1.978,-0.0285339,
1.9785,-0.0204468,
1.979,-0.00839233,
1.9795,-0.000762939,
1.98,0.000152588,
1.9805,-0.00320435,
1.981,0.00183105,
1.9815,0.0119019,
1.982,0.0151062,
1.9825,0.00869751,
1.983,0.0050354,
1.9835,0,
1.984,-0.0111389,
1.9845,-0.0152588,
1.985,-0.0112915,
1.9855,-0.00640869,
1.986,-0.00656128,
1.9865,-0.0105286,
1.987,-0.00854492,
1.9875,0.00137329,
1.988,0.0112915,
1.9885,0.0144958,
1.989,0.0112915,
1.9895,0.00671387,
1.99,0.00167847,
1.9905,-0.00427246,
1.991,-0.0102234,
1.9915,-0.0126648,
1.992,-0.0158691,
1.9925,-0.0160217,
1.993,-0.0143433,
1.9935,-0.0161743,
1.994,-0.0256348,
1.9945,-0.0325012,
1.995,-0.0209045,
1.9955,0.00854492,
1.996,0.0244141,
1.9965,0.014801,
1.997,0.0177002,
1.9975,0.0271606,
1.998,0.00640869,
1.9985,-0.0245667,
1.999,-0.03479,
1.9995,-0.0216675,
2,0.000305176,
2.0005,0.0137329,
2.001,0.00900269,
2.0015,0.0050354,
2.002,0.0108337,
2.0025,0.0259399,
2.003,0.0325012,
2.0035,0.020752,
2.004,-0.00991821,
2.0045,-0.0396729,
2.005,-0.0544739,
2.0055,-0.0535583,
2.006,-0.0453186,
2.0065,-0.030365,
2.007,-0.0212097,
2.0075,-0.018158,
2.008,-0.0126648,
2.0085,0.000305176,
2.009,0.00411987,
2.0095,-0.0160217,
2.01,-0.0352478,
2.0105,-0.0224304,
2.011,0.025177,
2.0115,0.0843811,
2.012,0.1091,
2.0125,0.0839233,
2.013,0.0453186,
2.0135,0.0262451,
2.014,0.0228882,
2.0145,0.0189209,
2.015,0.0154114,
2.0155,0.0170898,
2.016,0.0238037,
2.0165,0.0228882,
2.017,0.00976563,
2.0175,-0.00640869,
2.018,-0.0123596,
2.0185,-0.00396729,
2.019,0.00488281,
2.0195,0.00564575,
2.02,0.00991821,
2.0205,0.0158691,
2.021,0.0112915,
2.0215,-0.000610352,
2.022,-0.0105286,
2.0225,-0.0119019,
2.023,-0.00686646,
2.0235,0,
2.024,-0.00411987,
2.0245,-0.0234985,
2.025,-0.0408936,
2.0255,-0.037384,
2.026,-0.0241089,
2.0265,-0.0253296,
2.027,-0.0479126,
2.0275,-0.0698853,
2.028,-0.0669861,
2.0285,-0.0450134,
2.029,-0.0268555,
2.0295,-0.0234985,
2.03,-0.0219727,
2.0305,-0.0177002,
2.031,-0.0170898,
2.0315,-0.00839233,
2.032,0.0109863,
2.0325,0.0262451,
2.033,0.0213623,
2.0335,-0.00167847,
2.034,-0.0198364,
2.0345,-0.0114441,
2.035,0.0115967,
2.0355,0.0326538,
2.036,0.0489807,
2.0365,0.0588989,
2.037,0.0561523,
2.0375,0.0422668,
2.038,0.0274658,
2.0385,0.0152588,
2.039,0.0102234,
2.0395,0.00595093,
2.04,0.00305176,
2.0405,-0.000915527,
2.041,-0.00411987,
2.0415,-0.000152588,
2.042,0.00701904,
2.0425,0.0117493,
2.043,0.00244141,
2.0435,-0.0189209,
2.044,-0.0254822,
2.0445,-0.0219727,
2.045,-0.0132751,
2.0455,-0.000762939,
2.046,0.00366211,
2.0465,-0.00289917,
2.047,-0.0149536,
2.0475,-0.0280762,
2.048,-0.0361633,
2.0485,-0.0230408,
2.049,-0.00564575,
2.0495,-0.00747681,
2.05,-0.0195313,
2.0505,-0.0302124,
2.051,-0.0271606,
2.0515,-0.0062561,
2.052,0.0161743,
2.0525,0.0210571,
2.053,0.0152588,
2.0535,0.00808716,
2.054,0.000915527,
2.0545,-0.00915527,
2.055,-0.0209045,
2.0555,-0.0224304,
2.056,-0.0062561,
2.0565,0.00228882,
2.057,-0.00534058,
2.0575,-0.00854492,
2.058,-0.0125122,
2.0585,-0.0215149,
2.059,-0.0167847,
2.0595,-0.00701904,
2.06,-0.0175476,
2.0605,-0.0382996,
2.061,-0.0480652,
2.0615,-0.0494385,
2.062,-0.0427246,
2.0625,-0.0238037,
2.063,0.00549316,
2.0635,0.027771,
2.064,0.0280762,
2.0645,0.0143433,
2.065,-0.00198364,
2.0655,-0.014801,
2.066,-0.0234985,
2.0665,-0.0352478,
2.067,-0.0352478,
2.0675,-0.00869751,
2.068,0.0233459,
2.0685,0.0408936,
2.069,0.0411987,
2.0695,0.0352478,
2.07,0.0279236,
2.0705,0.0205994,
2.071,0.0117493,
2.0715,-0.000610352,
2.072,-0.00961304,
2.0725,-0.00564575,
2.073,0.00198364,
2.0735,0.00976563,
2.074,0.0239563,
2.0745,0.0296021,
2.075,0.0158691,
2.0755,-0.00396729,
2.076,-0.00915527,
2.0765,-0.00335693,
2.077,-0.00640869,
2.0775,-0.00930786,
2.078,0.00595093,
2.0785,0.0292969,
2.079,0.0334167,
2.0795,0.0209045,
2.08,0.00274658,
2.0805,-0.0088501,
2.081,-0.0140381,
2.0815,-0.0234985,
2.082,-0.0357056,
2.0825,-0.0357056,
2.083,-0.0196838,
2.0835,0.00579834,
2.084,0.0260925,
2.0845,0.0367737,
2.085,0.027771,
2.0855,0.00335693,
2.086,-0.0126648,
2.0865,-0.00518799,
2.087,0.00579834,
2.0875,-0.00106812,
2.088,-0.0239563,
2.0885,-0.0430298,
2.089,-0.0468445,
2.0895,-0.037384,
2.09,-0.0152588,
2.0905,0.00442505,
2.091,0.0132751,
2.0915,0.0102234,
2.092,0.00183105,
2.0925,-0.00366211,
2.093,0.00274658,
2.0935,0.0233459,
2.094,0.0392151,
2.0945,0.0283813,
2.095,0.00427246,
2.0955,-0.0100708,
2.096,-0.0180054,
2.0965,-0.0294495,
2.097,-0.0221252,
2.0975,0.00640869,
2.098,0.0326538,
2.0985,0.0387573,
2.099,0.0238037,
2.0995,0.00747681,
2.1,-0.00213623,
2.1005,-0.0105286,
2.101,-0.0146484,
2.1015,-0.0224304,
2.102,-0.0320435,
2.1025,-0.0254822,
2.103,-0.000762939,
2.1035,0.0318909,
2.104,0.0370789,
2.1045,0.0132751,
2.105,-0.00259399,
2.1055,-0.000762939,
2.106,0.00564575,
2.1065,0.0164795,
2.107,0.0248718,
2.1075,0.0305176,
2.108,0.0354004,
2.1085,0.019989,
2.109,-0.012207,
2.1095,-0.0352478,
2.11,-0.0402832,
2.1105,-0.038147,
2.111,-0.0466919,
2.1115,-0.0691223,
2.112,-0.0871277,
2.1125,-0.0820923,
2.113,-0.0463867,
2.1135,-0.018158,
2.114,-0.0228882,
2.1145,-0.0515747,
2.115,-0.0593567,
2.1155,-0.0268555,
2.116,0.0012207,
2.1165,0.0205994,
2.117,0.0665283,
2.1175,0.128326,
2.118,0.136871,
2.1185,0.0852966,
2.119,0.0239563,
2.1195,-0.0183105,
2.12,-0.0302124,
2.1205,-0.0172424,
2.121,-0.0112915,
2.1215,-0.0062561,
2.122,-0.00274658,
2.1225,-0.0175476,
2.123,-0.0431824,
2.1235,-0.0424194,
2.124,-0.000305176,
2.1245,0.0546265,
2.125,0.0723267,
2.1255,0.0517273,
2.126,0.045929,
2.1265,0.0669861,
2.127,0.0775146,
2.1275,0.0657654,
2.128,0.0440979,
2.1285,0.0186157,
2.129,0.0120544,
2.1295,0.0209045,
2.13,0.0189209,
2.1305,0.00411987,
2.131,-0.00747681,
2.1315,-0.0134277,
2.132,-0.00717163,
2.1325,-0.00137329,
2.133,-0.00991821,
2.1335,-0.0338745,
2.134,-0.0517273,
2.1345,-0.0611877,
2.135,-0.0788879,
2.1355,-0.0991821,
2.136,-0.0881958,
2.1365,-0.0476074,
2.137,-0.00991821,
2.1375,0.00793457,
2.138,-0.00488281,
2.1385,-0.0448608,
2.139,-0.0715637,
2.1395,-0.0733948,
2.14,-0.0886536,
2.1405,-0.107269,
2.141,-0.0912476,
2.1415,-0.052948,
2.142,-0.0398254,
2.1425,-0.0563049,
2.143,-0.0492859,
2.1435,-0.0189209,
2.144,0.0234985,
2.1445,0.0634766,
2.145,0.0817871,
2.1455,0.0863647,
2.146,0.0979614,
2.1465,0.111542,
2.147,0.114288,
2.1475,0.103149,
2.148,0.0686646,
2.1485,0.0331116,
2.149,0.0160217,
2.1495,-0.000915527,
2.15,-0.0276184,
2.1505,-0.0357056,
2.151,-0.0137329,
2.1515,0.0125122,
2.152,0.0408936,
2.1525,0.0769043,
2.153,0.0834656,
2.1535,0.0500488,
2.154,0.0297546,
2.1545,0.0335693,
2.155,0.030365,
2.1555,0.0134277,
2.156,0.00839233,
2.1565,0.0286865,
2.157,0.0424194,
2.1575,0.0224304,
2.158,-0.0213623,
2.1585,-0.0436401,
2.159,-0.0137329,
2.1595,0.0274658,
2.16,0.0349426,
2.1605,0.0248718,
2.161,0.0233459,
2.1615,0.0170898,
2.162,-0.0062561,
2.1625,-0.0273132,
2.163,-0.0315857,
2.1635,-0.0241089,
2.164,-0.0248718,
2.1645,-0.0366211,
2.165,-0.0440979,
2.1655,-0.0442505,
2.166,-0.0430298,
2.1665,-0.0494385,
2.167,-0.0491333,
2.1675,-0.0386047,
2.168,-0.0344849,
2.1685,-0.0376892,
2.169,-0.035553,
2.1695,-0.0280762,
2.17,-0.0267029,
2.1705,-0.0283813,
2.171,-0.0271606,
2.1715,-0.0325012,
2.172,-0.043335,
2.1725,-0.0411987,
2.173,-0.0306702,
2.1735,-0.0326538,
2.174,-0.0418091,
2.1745,-0.0378418,
2.175,-0.0184631,
2.1755,0.00488281,
2.176,0.0213623,
2.1765,-0.00396729,
2.177,-0.057373,
2.1775,-0.0691223,
2.178,-0.0462341,
2.1785,-0.0369263,
2.179,-0.0286865,
2.1795,-0.00244141,
2.18,0.00534058,
2.1805,-0.0222778,
2.181,-0.0505066,
2.1815,-0.0559998,
2.182,-0.0442505,
2.1825,-0.022583,
2.183,-0.0012207,
2.1835,0.0102234,
2.184,0.0230408,
2.1845,0.0492859,
2.185,0.0634766,
2.1855,0.0454712,
2.186,0.0297546,
2.1865,0.0283813,
2.187,0.0189209,
2.1875,-0.00167847,
2.188,-0.0195313,
2.1885,-0.0328064,
2.189,-0.0305176,
2.1895,-0.0187683,
2.19,-0.0247192,
2.1905,-0.0314331,
2.191,0.00244141,
2.1915,0.0500488,
2.192,0.0640869,
2.1925,0.0593567,
2.193,0.0587463,
2.1935,0.0514221,
2.194,0.0332642,
2.1945,0.0125122,
2.195,0.00244141,
2.1955,0.00457764,
2.196,0.00534058,
2.1965,0.000457764,
2.197,-0.0050354,
2.1975,-0.0105286,
2.198,-0.0233459,
2.1985,-0.0386047,
2.199,-0.0413513,
2.1995,-0.0338745,
2.2,-0.018158,
2.2005,0.0131226,
2.201,0.0422668,
2.2015,0.0476074,
2.202,0.035553,
2.2025,0.017395,
2.203,0.000457764,
2.2035,-0.012207,
2.204,-0.025177,
2.2045,-0.0410461,
2.205,-0.0605774,
2.2055,-0.0790405,
2.206,-0.0852966,
2.2065,-0.0712585,
2.207,-0.0389099,
2.2075,-0.00152588,
2.208,0.0256348,
2.2085,0.0360107,
2.209,0.030365,
2.2095,0.0241089,
2.21,0.0241089,
2.2105,0.0172424,
2.211,0.00320435,
2.2115,-0.0038147,
2.212,0.0012207,
2.2125,0.00137329,
2.213,-0.00305176,
2.2135,0.000457764,
2.214,0.0100708,
2.2145,0.0190735,
2.215,0.0296021,
2.2155,0.0360107,
2.216,0.0416565,
2.2165,0.0444031,
2.217,0.0401306,
2.2175,0.0419617,
2.218,0.0468445,
2.2185,0.0387573,
2.219,0.0260925,
2.2195,0.0119019,
2.22,-0.00411987,
2.2205,-0.0222778,
2.221,-0.0372314,
2.2215,-0.0282288,
2.222,0.00289917,
2.2225,0.0349426,
2.223,0.0422668,
2.2235,0.0215149,
2.224,-0.00579834,
2.2245,-0.0164795,
2.225,-0.0166321,
2.2255,-0.017395,
2.226,-0.0205994,
2.2265,-0.0224304,
2.227,-0.0134277,
2.2275,0.00900269,
2.228,0.0288391,
2.2285,0.0335693,
2.229,0.0228882,
2.2295,0.0062561,
2.23,-0.00274658,
2.2305,-0.0149536,
2.231,-0.0306702,
2.2315,-0.0370789,
2.232,-0.0224304,
2.2325,0.00167847,
2.233,0.0102234,
2.2335,-0.00610352,
2.234,-0.027771,
2.2345,-0.0306702,
2.235,-0.000305176,
2.2355,0.0219727,
2.236,0.00930786,
2.2365,-0.0115967,
2.237,-0.0219727,
2.2375,-0.0102234,
2.238,-0.00396729,
2.2385,-0.015564,
2.239,-0.0257874,
2.2395,-0.0306702,
2.24,-0.0267029,
2.2405,-0.0183105,
2.241,0.00350952,
2.2415,0.0263977,
2.242,0.0360107,
2.2425,0.0354004,
2.243,0.0352478,
2.2435,0.0382996,
2.244,0.0424194,
2.2445,0.0396729,
2.245,0.0244141,
2.2455,0.00900269,
2.246,0.000305176,
2.2465,-0.0138855,
2.247,-0.0317383,
2.2475,-0.0402832,
2.248,-0.0410461,
2.2485,-0.0416565,
2.249,-0.038147,
2.2495,-0.0386047,
2.25,-0.050354,
2.2505,-0.0779724,
2.251,-0.102997,
2.2515,-0.0639343,
2.252,0.0204468,
2.2525,0.0642395,
2.253,0.038147,
2.2535,-0.00976563,
2.254,-0.0413513,
2.2545,-0.0483704,
2.255,-0.0257874,
2.2555,0.0288391,
2.256,0.0817871,
2.2565,0.0914001,
2.257,0.0592041,
2.2575,0.0228882,
2.258,0.0180054,
2.2585,0.0256348,
2.259,0.0189209,
2.2595,0.00518799,
2.26,0.00411987,
2.2605,0.00839233,
2.261,0.00686646,
2.2615,0.00442505,
2.262,0.00564575,
2.2625,0.00457764,
2.263,0.000457764,
2.2635,-0.00640869,
2.264,-0.0157166,
2.2645,-0.0233459,
2.265,-0.0189209,
2.2655,-0.00900269,
2.266,-0.00411987,
2.2665,-0.00320435,
2.267,-0.00869751,
2.2675,-0.012207,
2.268,-0.0210571,
2.2685,-0.0248718,
2.269,-0.010376,
2.2695,0.00305176,
2.27,-0.00305176,
2.2705,-0.0128174,
2.271,-0.015564,
2.2715,-0.017395,
2.272,-0.0218201,
2.2725,-0.0260925,
2.273,-0.0344849,
2.2735,-0.0439453,
2.274,-0.0401306,
2.2745,-0.010376,
2.275,0.0341797,
2.2755,0.0614929,
2.276,0.0483704,
2.2765,0.018158,
2.277,-0.00396729,
2.2775,-0.0160217,
2.278,-0.0238037,
2.2785,-0.0364685,
2.279,-0.0346375,
2.2795,-0.0140381,
2.28,-0.00350952,
2.2805,-0.0254822,
2.281,-0.0415039,
2.2815,-0.0331116,
2.282,-0.0350952,
2.2825,-0.0410461,
2.283,-0.020752,
2.2835,0.00793457,
2.284,0.0202942,
2.2845,0.0195313,
2.285,0.01297,
2.2855,0.00717163,
2.286,0.00732422,
2.2865,0.00549316,
2.287,-0.00228882,
2.2875,-0.0120544,
2.288,-0.0100708,
2.2885,0.00686646,
2.289,0.0254822,
2.2895,0.0326538,
2.29,0.0253296,
2.2905,0.0106812,
2.291,-0.00152588,
2.2915,-0.00869751,
2.292,-0.017395,
2.2925,-0.0340271,
2.293,-0.0468445,
2.2935,-0.0471497,
2.294,-0.0382996,
2.2945,-0.0175476,
2.295,0.0126648,
2.2955,0.0259399,
2.296,0.0202942,
2.2965,0.0222778,
2.297,0.0262451,
2.2975,0.0239563,
2.298,0.0219727,
2.2985,0.019989,
2.299,0.0149536,
2.2995,0.00396729,
2.3,-0.00457764,
2.3005,-0.00335693,
2.301,0.00518799,
2.3015,0.0105286,
2.302,0.00595093,
2.3025,-0.000305176,
2.303,-0.00244141,
2.3035,-0.0131226,
2.304,-0.0268555,
2.3045,-0.0292969,
2.305,-0.0163269,
2.3055,-0.0108337,
2.306,-0.0213623,
2.3065,-0.0141907,
2.307,0.0167847,
2.3075,0.0299072,
2.308,0.00534058,
2.3085,-0.0349426,
2.309,-0.0515747,
2.3095,-0.0263977,
2.31,0.00244141,
2.3105,0.00564575,
2.311,0.0100708,
2.3115,0.0292969,
2.312,0.0343323,
2.3125,0.0178528,
2.313,-0.000915527,
2.3135,-0.00473022,
2.314,-0.00411987,
2.3145,-0.0170898,
2.315,-0.0228882,
2.3155,-0.0160217,
2.316,-0.00656128,
2.3165,-0.0088501,
2.317,-0.0202942,
2.3175,-0.022583,
2.318,-0.0378418,
2.3185,-0.085144,
2.319,-0.0961304,
2.3195,-0.0108337,
2.32,0.085144,
2.3205,0.0883484,
2.321,0.0497437,
2.3215,0.0408936,
2.322,0.0395203,
2.3225,0.0205994,
2.323,-0.00289917,
2.3235,-0.0143433,
2.324,-0.012207,
2.3245,-0.00350952,
2.325,0.010376,
2.3255,0.0291443,
2.326,0.0378418,
2.3265,0.0364685,
2.327,0.0382996,
2.3275,0.0476074,
2.328,0.0357056,
2.3285,-0.00366211,
2.329,-0.0396729,
2.3295,-0.0469971,
2.33,-0.0254822,
2.3305,0.00732422,
2.331,0.0288391,
2.3315,0.017395,
2.332,-0.0157166,
2.3325,-0.0341797,
2.333,-0.0216675,
2.3335,-0.00579834,
2.334,-0.00244141,
2.3345,-0.000305176,
2.335,0.00518799,
2.3355,0.00274658,
2.336,-0.00686646,
2.3365,-0.017395,
2.337,-0.00808716,
2.3375,0.0248718,
2.338,0.0509644,
2.3385,0.0494385,
2.339,0.0257874,
2.3395,0.00549316,
2.34,-0.00732422,
2.3405,-0.017395,
2.341,-0.0204468,
2.3415,-0.0218201,
2.342,-0.0256348,
2.3425,-0.0175476,
2.343,0.00564575,
2.3435,0.0286865,
2.344,0.0436401,
2.3445,0.0405884,
2.345,0.0234985,
2.3455,0.00961304,
2.346,0.000915527,
2.3465,-0.00534058,
2.347,-0.00900269,
2.3475,-0.0158691,
2.348,-0.0210571,
2.3485,-0.0193787,
2.349,-0.0157166,
2.3495,-0.00549316,
2.35,0.00289917,
2.3505,-0.00518799,
2.351,-0.0279236,
2.3515,-0.0436401,
2.352,-0.0405884,
2.3525,-0.0323486,
2.353,-0.0230408,
2.3535,-0.00686646,
2.354,0.00869751,
2.3545,0.012207,
2.355,0.00213623,
2.3555,-0.0038147,
2.356,0.00549316,
2.3565,0.010376,
2.357,0.00427246,
2.3575,-0.00930786,
2.358,-0.0215149,
2.3585,-0.0215149,
2.359,-0.0201416,
2.3595,-0.0231934,
2.36,-0.0135803,
2.3605,0.00869751,
2.361,0.014801,
2.3615,0.00274658,
2.362,-0.0140381,
2.3625,-0.022583,
2.363,-0.020752,
2.3635,-0.010376,
2.364,-0.00106812,
2.3645,-0.00366211,
2.365,-0.0111389,
2.3655,-0.0106812,
2.366,-0.00747681,
2.3665,-0.0062561,
2.367,-0.00854492,
2.3675,-0.0131226,
2.368,-0.0149536,
2.3685,-0.0212097,
2.369,-0.0338745,
2.3695,-0.043335,
2.37,-0.0247192,
2.3705,-0.00411987,
2.371,-0.0144958,
2.3715,-0.0283813,
2.372,-0.0230408,
2.3725,-0.00946045,
2.373,-0.0108337,
2.3735,-0.0183105,
2.374,-0.0151062,
2.3745,-0.00518799,
2.375,0.00167847,
2.3755,-0.000915527,
2.376,-0.0123596,
2.3765,-0.0282288,
2.377,-0.0410461,
2.3775,-0.0401306,
2.378,-0.0038147,
2.3785,0.0582886,
2.379,0.0842285,
2.3795,0.0622559,
2.38,0.0350952,
2.3805,0.0267029,
2.381,0.0323486,
2.3815,0.0244141,
2.382,0.000762939,
2.3825,-0.0106812,
2.383,-0.0146484,
2.3835,-0.0222778,
2.384,-0.0140381,
2.3845,0.00869751,
2.385,0.0231934,
2.3855,0.0212097,
2.386,0.0135803,
2.3865,0.00549316,
2.387,-0.000305176,
2.3875,0,
2.388,0.00106812,
2.3885,-0.00930786,
2.389,-0.0239563,
2.3895,-0.0334167,
2.39,-0.0189209,
2.3905,0.00656128,
2.391,0.0262451,
2.3915,0.035553,
2.392,0.0392151,
2.3925,0.0390625,
2.393,0.0302124,
2.3935,0.015564,
2.394,0.000152588,
2.3945,-0.0152588,
2.395,-0.0309753,
2.3955,-0.0396729,
2.396,-0.0369263,
2.3965,-0.0308228,
2.397,-0.0213623,
2.3975,0.00915527,
2.398,0.043335,
2.3985,0.0422668,
2.399,0.0170898,
2.3995,0.00442505,
2.4,0.0115967,
2.4005,0.0236511,
2.401,0.0239563,
2.4015,0.0125122,
2.402,0.00457764,
2.4025,0.00488281,
2.403,0.0115967,
2.4035,0.0123596,
2.404,0.00747681,
2.4045,-0.00106812,
2.405,-0.00747681,
2.4055,-0.00839233,
2.406,-0.00473022,
2.4065,-0.00595093,
2.407,-0.0119019,
2.4075,-0.0228882,
2.408,-0.0352478,
2.4085,-0.0204468,
2.409,0.0204468,
2.4095,0.0392151,
2.41,0.0227356,
2.4105,0.0157166,
2.411,0.0238037,
2.4115,0.027771,
2.412,0.0175476,
2.4125,0.00411987,
2.413,-0.00320435,
2.4135,-0.00396729,
2.414,-0.00640869,
2.4145,-0.0160217,
2.415,-0.0254822,
2.4155,-0.0265503,
2.416,-0.0204468,
2.4165,-0.0138855,
2.417,-0.00976563,
2.4175,-0.00442505,
2.418,0.00106812,
2.4185,-0.00335693,
2.419,-0.00976563,
2.4195,-0.00808716,
2.42,0.00183105,
2.4205,0.00747681,
2.421,0.000610352,
2.4215,-0.00854492,
2.422,-0.0144958,
2.4225,-0.0242615,
2.423,-0.0289917,
2.4235,-0.0386047,
2.424,-0.0473022,
2.4245,-0.030365,
2.425,0.00991821,
2.4255,0.0418091,
2.426,0.0386047,
2.4265,0.0135803,
2.427,-0.000152588,
2.4275,0.000915527,
2.428,0.00167847,
2.4285,-0.00671387,
2.429,-0.0227356,
2.4295,-0.0343323,
2.43,-0.0376892,
2.4305,-0.0364685,
2.431,-0.038147,
2.4315,-0.0462341,
2.432,-0.0344849,
2.4325,-0.00549316,
2.433,-0.00488281,
2.4335,-0.0349426,
2.434,-0.0357056,
2.4345,-0.018158,
2.435,-0.0341797,
2.4355,-0.0640869,
2.436,-0.0602722,
2.4365,-0.0263977,
2.437,0.0160217,
2.4375,0.0450134,
2.438,0.0489807,
2.4385,0.0479126,
2.439,0.0640869,
2.4395,0.0794983,
2.44,0.0689697,
2.4405,0.0439453,
2.441,0.0154114,
2.4415,0.00259399,
2.442,0.00732422,
2.4425,0.012207,
2.443,0.00518799,
2.4435,-0.0146484,
2.444,-0.030365,
2.4445,-0.0222778,
2.445,0.00778198,
2.4455,0.0238037,
2.446,0.0143433,
2.4465,-0.00869751,
2.447,-0.0285339,
2.4475,-0.0444031,
2.448,-0.0572205,
2.4485,-0.0450134,
2.449,0.00137329,
2.4495,0.0306702,
2.45,0.0186157,
2.4505,-0.0126648,
2.451,-0.0271606,
2.4515,-0.0135803,
2.452,0.00305176,
2.4525,0.00289917,
2.453,-0.00488281,
2.4535,-0.00946045,
2.454,-0.00518799,
2.4545,0.00762939,
2.455,0.0128174,
2.4555,0.00869751,
2.456,0.00869751,
2.4565,0.00930786,
2.457,0.000457764,
2.4575,-0.0152588,
2.458,-0.0190735,
2.4585,-0.0119019,
2.459,-0.00976563,
2.4595,-0.00473022,
2.46,-0.000457764,
2.4605,-0.00701904,
2.461,-0.0154114,
2.4615,-0.0215149,
2.462,-0.0212097,
2.4625,-0.0276184,
2.463,-0.0366211,
2.4635,-0.038147,
2.464,-0.0254822,
2.4645,0.00137329,
2.465,0.0328064,
2.4655,0.0415039,
2.466,0.0291443,
2.4665,0.01297,
2.467,0.00305176,
2.4675,0.00640869,
2.468,0.0167847,
2.4685,0.0114441,
2.469,-0.00915527,
2.4695,-0.0268555,
2.47,-0.0350952,
2.4705,-0.0427246,
2.471,-0.0460815,
2.4715,-0.015564,
2.472,0.0248718,
2.4725,0.0354004,
2.473,0.0224304,
2.4735,0.0180054,
2.474,0.0152588,
2.4745,0.00411987,
2.475,-0.00839233,
2.4755,-0.0112915,
2.476,0.00152588,
2.4765,0.00762939,
2.477,-0.00350952,
2.4775,-0.0119019,
2.478,-0.0109863,
2.4785,-0.00732422,
2.479,-0.00518799,
2.4795,-0.00213623,
2.48,0.00457764,
2.4805,0.0131226,
2.481,0.00656128,
2.4815,-0.00305176,
2.482,-0.00869751,
2.4825,-0.0157166,
2.483,-0.0192261,
2.4835,-0.00671387,
2.484,0.0112915,
2.4845,0.012207,
2.485,-0.0038147,
2.4855,-0.015564,
2.486,-0.00305176,
2.4865,0.0172424,
2.487,0.0289917,
2.4875,0.0273132,
2.488,0.0192261,
2.4885,0.0123596,
2.489,0.00808716,
2.4895,-0.000610352,
2.49,-0.015564,
2.4905,-0.0300598,
2.491,-0.0323486,
2.4915,-0.0376892,
2.492,-0.0326538,
2.4925,-0.0131226,
2.493,0.00213623,
2.4935,-0.00579834,
2.494,-0.0241089,
2.4945,-0.040741,
2.495,-0.063324,
2.4955,-0.0752258,
2.496,-0.0646973,
2.4965,-0.04776,
2.497,-0.0492859,
2.4975,-0.0720215,
2.498,-0.0682068,
2.4985,-0.0149536,
2.499,0.0520325,
2.4995,0.0944519,
2.5,0.119781,
2.5005,0.137177,
2.501,0.13443,
2.5015,0.112152,
2.502,0.0862122,
2.5025,0.0674438,
2.503,0.0488281,
2.5035,0.0323486,
2.504,0.0222778,
2.5045,0.0164795,
2.505,0.0184631,
2.5055,0.0341797,
2.506,0.0466919,
2.5065,0.0405884,
2.507,0.0271606,
2.5075,0.0230408,
2.508,0.0234985,
2.5085,0.0262451,
2.509,0.0263977,
2.5095,0.0137329,
2.51,-0.00350952,
2.5105,-0.0138855,
2.511,-0.0189209,
2.5115,-0.0242615,
2.512,-0.0259399,
2.5125,-0.0236511,
2.513,-0.0204468,
2.5135,-0.0141907,
2.514,-0.0140381,
2.5145,-0.0230408,
2.515,-0.0314331,
2.5155,-0.0236511,
2.516,-0.0117493,
2.5165,-0.0218201,
2.517,-0.0326538,
2.5175,-0.0230408,
2.518,-0.00320435,
2.5185,0.00350952,
2.519,-0.00228882,
2.5195,-0.0137329,
2.52,-0.0282288,
2.5205,-0.035553,
2.521,-0.0288391,
2.5215,-0.0192261,
2.522,-0.0169373,
2.5225,-0.0268555,
2.523,-0.0236511,
2.5235,-0.00442505,
2.524,0.00198364,
2.5245,-0.00869751,
2.525,-0.0183105,
2.5255,-0.0234985,
2.526,-0.0262451,
2.5265,-0.032959,
2.527,-0.0392151,
2.5275,-0.0460815,
2.528,-0.0582886,
2.5285,-0.0654602,
2.529,-0.0819397,
2.5295,-0.0865173,
2.53,-0.0344849,
2.5305,0.0447083,
2.531,0.0741577,
2.5315,0.0559998,
2.532,0.0424194,
2.5325,0.0468445,
2.533,0.0535583,
2.5335,0.0567627,
2.534,0.0520325,
2.5345,0.0457764,
2.535,0.0404358,
2.5355,0.025177,
2.536,0.00366211,
2.5365,-0.0138855,
2.537,-0.0189209,
2.5375,-0.0160217,
2.538,-0.0189209,
2.5385,-0.0189209,
2.539,-0.000610352,
2.5395,0.019989,
2.54,0.0164795,
2.5405,0.000305176,
2.541,-0.0125122,
2.5415,-0.0202942,
2.542,-0.0279236,
2.5425,-0.0340271,
2.543,-0.032959,
2.5435,-0.0283813,
2.544,-0.0326538,
2.5445,-0.0291443,
2.545,-0.0126648,
2.5455,0.000457764,
2.546,0.00137329,
2.5465,-0.00274658,
2.547,-0.00488281,
2.5475,-0.00442505,
2.548,-0.00473022,
2.5485,-0.00244141,
2.549,0.00976563,
2.5495,0.0247192,
2.55,0.0219727,
2.5505,0.00152588,
2.551,-0.0183105,
2.5515,-0.0216675,
2.552,-0.01297,
2.5525,-0.00167847,
2.553,0.00274658,
2.5535,0.00152588,
2.554,0.00518799,
2.5545,0.00534058,
2.555,0.00457764,
2.5555,0.00701904,
2.556,0.00427246,
2.5565,-0.00854492,
2.557,-0.0309753,
2.5575,-0.0531006,
2.558,-0.067749,
2.5585,-0.075531,
2.559,-0.0604248,
2.5595,-0.0170898,
2.56,0.0299072,
2.5605,0.0350952,
2.561,0.00793457,
2.5615,-0.00442505,
2.562,0.0143433,
2.5625,0.0390625,
2.563,0.0354004,
2.5635,0.0189209,
2.564,0.0178528,
2.5645,0.0297546,
2.565,0.0454712,
2.5655,0.0544739,
2.566,0.0254822,
2.5665,-0.0257874,
2.567,-0.0643921,
2.5675,-0.0770569,
2.568,-0.0752258,
2.5685,-0.0712585,
2.569,-0.0613403,
2.5695,-0.0547791,
2.57,-0.0648499,
2.5705,-0.0802612,
2.571,-0.0813293,
2.5715,-0.0579834,
2.572,-0.0126648,
2.5725,0.022583,
2.573,0.0408936,
2.5735,0.0622559,
2.574,0.0886536,
2.5745,0.112305,
2.575,0.128479,
2.5755,0.13031,
2.576,0.115509,
2.5765,0.098114,
2.577,0.085144,
2.5775,0.0639343,
2.578,0.0297546,
2.5785,-0.00854492,
2.579,-0.0285339,
2.5795,-0.0279236,
2.58,-0.0292969,
2.5805,-0.0302124,
2.581,-0.00137329,
2.5815,0.0325012,
2.582,0.0360107,
2.5825,0.0161743,
2.583,-0.00198364,
2.5835,-0.00228882,
2.584,0.0140381,
2.5845,0.0285339,
2.585,0.0236511,
2.5855,0.00579834,
2.586,0.00518799,
2.5865,0.0138855,
2.587,0.00762939,
2.5875,-0.0125122,
2.588,-0.022583,
2.5885,-0.0183105,
2.589,-0.0158691,
2.5895,-0.0195313,
2.59,-0.0257874,
2.5905,-0.0222778,
2.591,-0.0135803,
2.5915,-0.0164795,
2.592,-0.0247192,
2.5925,-0.0294495,
2.593,-0.0276184,
2.5935,-0.0215149,
2.594,-0.0187683,
2.5945,-0.0152588,
2.595,-0.0108337,
2.5955,-0.0140381,
2.596,-0.022583,
2.5965,-0.0311279,
2.597,-0.0343323,
2.5975,-0.0337219,
2.598,-0.0384521,
2.5985,-0.0485229,
2.599,-0.0520325,
2.5995,-0.0454712,
2.6,-0.0358582,
2.6005,-0.0297546,
2.601,-0.0184631,
2.6015,-0.00823975,
2.602,-0.00427246,
2.6025,-0.00183105,
2.603,0.00839233,
2.6035,0.0172424,
2.604,0.00549316,
2.6045,-0.000457764,
2.605,0.00686646,
2.6055,0.00350952,
2.606,-0.0137329,
2.6065,-0.0326538,
2.607,-0.0418091,
2.6075,-0.0323486,
2.608,-0.0128174,
2.6085,0.00350952,
2.609,0.0128174,
2.6095,0.0170898,
2.61,0.0157166,
2.6105,0.00610352,
2.611,0.000610352,
2.6115,0.00183105,
2.612,0.000762939,
2.6125,-0.00732422,
2.613,-0.0108337,
2.6135,-0.0177002,
2.614,-0.0328064,
2.6145,-0.0344849,
2.615,-0.01297,
2.6155,0.00183105,
2.616,0.00610352,
2.6165,0.014801,
2.617,0.025177,
2.6175,0.0241089,
2.618,0.0154114,
2.6185,0.00473022,
2.619,-0.00640869,
2.6195,-0.0186157,
2.62,-0.0157166,
2.6205,0.00442505,
2.621,0.0265503,
2.6215,0.027771,
2.622,0.00564575,
2.6225,-0.0209045,
2.623,-0.032196,
2.6235,-0.0334167,
2.624,-0.0218201,
2.6245,-0.00106812,
2.625,0.0169373,
2.6255,0.0300598,
2.626,0.039978,
2.6265,0.0276184,
2.627,-0.00549316,
2.6275,-0.0398254,
2.628,-0.0717163,
2.6285,-0.0849915,
2.629,-0.0663757,
2.6295,-0.0369263,
2.63,-0.0138855,
2.6305,0.0140381,
2.631,0.0341797,
2.6315,0.0195313,
2.632,-0.0167847,
2.6325,-0.0421143,
2.633,-0.043335,
2.6335,-0.0262451,
2.634,-0.00915527,
2.6345,-0.0161743,
2.635,-0.0335693,
2.6355,-0.0497437,
2.636,-0.067749,
2.6365,-0.0753784,
2.637,-0.0669861,
2.6375,-0.0471497,
2.638,-0.0296021,
2.6385,-0.00823975,
2.639,0.022583,
2.6395,0.065155,
2.64,0.0973511,
2.6405,0.102386,
2.641,0.104675,
2.6415,0.129547,
2.642,0.159454,
2.6425,0.187378,
2.643,0.202789,
2.6435,0.195465,
2.644,0.153046,
2.6445,0.0901794,
2.645,0.032959,
2.6455,0.00274658,
2.646,0.00152588,
2.6465,0.0172424,
2.647,0.0189209,
2.6475,-0.000305176,
2.648,-0.0146484,
2.6485,-0.0111389,
2.649,-0.00717163,
2.6495,-0.0143433,
2.65,-0.0384521,
2.6505,-0.0579834,
2.651,-0.0544739,
2.6515,-0.0372314,
2.652,-0.0193787,
2.6525,-0.0140381,
2.653,-0.0297546,
2.6535,-0.0601196,
2.654,-0.0875854,
2.6545,-0.102539,
2.655,-0.106506,
2.6555,-0.106049,
2.656,-0.0836182,
2.6565,-0.0265503,
2.657,0.037384,
2.6575,0.0679016,
2.658,0.0593567,
2.6585,0.0192261,
2.659,-0.035553,
2.6595,-0.0753784,
2.66,-0.0822449,
2.6605,-0.0723267,
2.661,-0.0701904,
2.6615,-0.0721741,
2.662,-0.0627136,
2.6625,-0.0375366,
2.663,0.00350952,
2.6635,0.0520325,
2.664,0.0848389,
2.6645,0.0967407,
2.665,0.123749,
2.6655,0.169067,
2.666,0.195313,
2.6665,0.177612,
2.667,0.121613,
2.6675,0.0509644,
2.668,-0.0154114,
2.6685,-0.0624084,
2.669,-0.0704956,
2.6695,-0.0492859,
2.67,-0.0209045,
2.6705,0.0256348,
2.671,0.0749207,
2.6715,0.0863647,
2.672,0.0665283,
2.6725,0.0404358,
2.673,0.0204468,
2.6735,0.00183105,
2.674,-0.0158691,
2.6745,-0.0305176,
2.675,-0.0402832,
2.6755,-0.0437927,
2.676,-0.0422668,
2.6765,-0.050354,
2.677,-0.065155,
2.6775,-0.0802612,
2.678,-0.0926208,
2.6785,-0.087738,
2.679,-0.0737,
2.6795,-0.0717163,
2.68,-0.0816345,
2.6805,-0.0927734,
2.681,-0.101624,
2.6815,-0.113373,
2.682,-0.121918,
2.6825,-0.127563,
2.683,-0.122833,
2.6835,-0.0917053,
2.684,-0.0395203,
2.6845,0.00610352,
2.685,0.0257874,
2.6855,0.027771,
2.686,0.0198364,
2.6865,0.0012207,
2.687,-0.038147,
2.6875,-0.0733948,
2.688,-0.0556946,
2.6885,0.0328064,
2.689,0.137177,
2.6895,0.184784,
2.69,0.179443,
2.6905,0.158234,
2.691,0.129852,
2.6915,0.0961304,
2.692,0.0654602,
2.6925,0.0315857,
2.693,0.00289917,
2.6935,-0.0146484,
2.694,-0.00915527,
2.6945,0.0135803,
2.695,0.0209045,
2.6955,0.010376,
2.696,-0.00717163,
2.6965,-0.0213623,
2.697,-0.022583,
2.6975,-0.0141907,
2.698,0.000152588,
2.6985,0.00564575,
2.699,-0.00686646,
2.6995,-0.0236511,
2.7,-0.0354004,
2.7005,-0.0334167,
2.701,-0.0204468,
2.7015,-0.018158,
2.702,-0.0386047,
2.7025,-0.0457764,
2.703,-0.0349426,
2.7035,-0.032959,
2.704,-0.0382996,
2.7045,-0.0372314,
2.705,-0.0291443,
2.7055,-0.0245667,
2.706,-0.0282288,
2.7065,-0.0387573,
2.707,-0.0462341,
2.7075,-0.0605774,
2.708,-0.0979614,
2.7085,-0.138702,
2.709,-0.168152,
2.7095,-0.197296,
2.71,-0.228119,
2.7105,-0.251312,
2.711,-0.265961,
2.7115,-0.261841,
2.712,-0.242004,
2.7125,-0.211487,
2.713,-0.164337,
2.7135,-0.106659,
2.714,-0.0437927,
2.7145,0.0616455,
2.715,0.180817,
2.7155,0.256958,
2.716,0.290985,
2.7165,0.311279,
2.717,0.304565,
2.7175,0.26825,
2.718,0.231018,
2.7185,0.215302,
2.719,0.206757,
2.7195,0.1828,
2.72,0.159302,
2.7205,0.15686,
2.721,0.155792,
2.7215,0.128784,
2.722,0.0843811,
2.7225,0.0434875,
2.723,0.0228882,
2.7235,0.0111389,
2.724,-0.0163269,
2.7245,-0.0485229,
2.725,-0.0480652,
2.7255,-0.0244141,
2.726,-0.0241089,
2.7265,-0.0393677,
2.727,-0.0436401,
2.7275,-0.0474548,
2.728,-0.0588989,
2.7285,-0.0679016,
2.729,-0.0726318,
2.7295,-0.0793457,
2.73,-0.0546265,
2.7305,0.0402832,
2.731,0.159302,
2.7315,0.215607,
2.732,0.192719,
2.7325,0.137634,
2.733,0.0735474,
2.7335,0.0247192,
2.734,-0.000305176,
2.7345,-0.0312805,
2.735,-0.0926208,
2.7355,-0.150299,
2.736,-0.166779,
2.7365,-0.140839,
2.737,-0.113678,
2.7375,-0.104523,
2.738,-0.10788,
2.7385,-0.130615,
2.739,-0.146179,
2.7395,-0.118408,
2.74,-0.0634766,
2.7405,-0.00595093,
2.741,0.0631714,
2.7415,0.14801,
2.742,0.214996,
2.7425,0.25116,
2.743,0.245972,
2.7435,0.194855,
2.744,0.139923,
2.7445,0.122833,
2.745,0.120392,
2.7455,0.0790405,
2.746,0.00823975,
2.7465,-0.045929,
2.747,-0.0776672,
2.7475,-0.0959778,
2.748,-0.0912476,
2.7485,-0.0750732,
2.749,-0.0827026,
2.7495,-0.0991821,
2.75,-0.102844,
2.7505,-0.100403,
2.751,-0.0975037,
2.7515,-0.078125,
2.752,-0.0436401,
2.7525,0.00640869,
2.753,0.0680542,
2.7535,0.108795,
2.754,0.0871277,
2.7545,0.0163269,
2.755,-0.0613403,
2.7555,-0.109558,
2.756,-0.137939,
2.7565,-0.162964,
2.757,-0.172424,
2.7575,-0.153656,
2.758,-0.122681,
2.7585,-0.104523,
2.759,-0.10788,
2.7595,-0.114441,
2.76,-0.11734,
2.7605,-0.111237,
2.761,-0.101776,
2.7615,-0.0941467,
2.762,-0.063324,
2.7625,0.03479,
2.763,0.170441,
2.7635,0.240631,
2.764,0.206451,
2.7645,0.131683,
2.765,0.067749,
2.7655,0.0146484,
2.766,-0.0241089,
2.7665,-0.00900269,
2.767,0.0276184,
2.7675,0.0392151,
2.768,0.0346375,
2.7685,0.0135803,
2.769,-0.0297546,
2.7695,-0.067749,
2.77,-0.0883484,
2.7705,-0.0907898,
2.771,-0.0697327,
2.7715,-0.0421143,
2.772,-0.0299072,
2.7725,-0.0344849,
2.773,-0.0280762,
2.7735,-0.030365,
2.774,-0.0527954,
2.7745,-0.0614929,
2.775,-0.0544739,
2.7755,-0.068512,
2.776,-0.10849,
2.7765,-0.133209,
2.777,-0.101776,
2.7775,-0.0582886,
2.778,-0.0437927,
2.7785,0.00701904,
2.779,0.153351,
2.7795,0.309906,
2.78,0.371552,
2.7805,0.354004,
2.781,0.300751,
2.7815,0.214996,
2.782,0.111542,
2.7825,0.0187683,
2.783,-0.0495911,
2.7835,-0.0828552,
2.784,-0.0883484,
2.7845,-0.0701904,
2.785,-0.0341797,
2.7855,-0.00167847,
2.786,0.00732422,
2.7865,0.00335693,
2.787,0.0209045,
2.7875,0.0708008,
2.788,0.135498,
2.7885,0.163116,
2.789,0.122528,
2.7895,0.0408936,
2.79,-0.0437927,
2.7905,-0.123138,
2.791,-0.189056,
2.7915,-0.233612,
2.792,-0.276184,
2.7925,-0.319366,
2.793,-0.353546,
2.7935,-0.362701,
2.794,-0.330658,
2.7945,-0.256195,
2.795,-0.147858,
2.7955,-0.0202942,
2.796,0.119171,
2.7965,0.230865,
2.797,0.264282,
2.7975,0.246887,
2.798,0.255737,
2.7985,0.326691,
2.799,0.422058,
2.7995,0.497742,
2.8,0.488892,
2.8005,0.400085,
2.801,0.277405,
2.8015,0.166779,
2.802,0.0938416,
2.8025,0.0468445,
2.803,0.00488281,
2.8035,-0.0344849,
2.804,-0.0634766,
2.8045,-0.0714111,
2.805,-0.0572205,
2.8055,-0.0494385,
2.806,-0.0653076,
2.8065,-0.0968933,
2.807,-0.146484,
2.8075,-0.203094,
2.808,-0.233459,
2.8085,-0.246582,
2.809,-0.279236,
2.8095,-0.34668,
2.81,-0.428772,
2.8105,-0.49057,
2.811,-0.511169,
2.8115,-0.47287,
2.812,-0.376434,
2.8125,-0.265961,
2.813,-0.161438,
2.8135,-0.0857544,
2.814,-0.0282288,
2.8145,0.0440979,
2.815,0.145111,
2.8155,0.271606,
2.816,0.417328,
2.8165,0.596466,
2.817,0.737915,
2.8175,0.736389,
2.818,0.582581,
2.8185,0.354309,
2.819,0.127411,
2.8195,0.0190735,
2.82,0.057373,
2.8205,0.136108,
2.821,0.133209,
2.8215,0.0863647,
2.822,0.0721741,
2.8225,0.0642395,
2.823,0.0169373,
2.8235,-0.0372314,
2.824,-0.0559998,
2.8245,-0.0675964,
2.825,-0.0836182,
2.8255,-0.0875854,
2.826,-0.0814819,
2.8265,-0.0793457,
2.827,-0.0846863,
2.8275,-0.101624,
2.828,-0.127411,
2.8285,-0.145264,
2.829,-0.153961,
2.8295,-0.142822,
2.83,-0.105896,
2.8305,-0.0788879,
2.831,-0.091095,
2.8315,-0.12558,
2.832,-0.162506,
2.8325,-0.204315,
2.833,-0.220337,
2.8335,-0.191956,
2.834,-0.165405,
2.8345,-0.200653,
2.835,-0.287628,
2.8355,-0.353394,
2.836,-0.36377,
2.8365,-0.353241,
2.837,-0.315247,
2.8375,-0.242615,
2.838,-0.175171,
2.8385,-0.108948,
2.839,-0.0106812,
2.8395,0.15274,
2.84,0.370636,
2.8405,0.545044,
2.841,0.610809,
2.8415,0.544128,
2.842,0.411987,
2.8425,0.297394,
2.843,0.201569,
2.8435,0.122375,
2.844,0.0863647,
2.8445,0.0576782,
2.845,-0.00640869,
2.8455,-0.0749207,
2.846,-0.115051,
2.8465,-0.119934,
2.847,-0.101929,
2.8475,-0.0543213,
2.848,0.0271606,
2.8485,0.0956726,
2.849,0.110168,
2.8495,0.0836182,
2.85,0.0511169,
2.8505,0.050354,
2.851,0.0949097,
2.8515,0.115051,
2.852,0.0662231,
2.8525,-0.00839233,
2.853,-0.04776,
2.8535,-0.0531006,
2.854,-0.0500488,
2.8545,-0.0588989,
2.855,-0.0915527,
2.8555,-0.134888,
2.856,-0.17868,
2.8565,-0.22583,
2.857,-0.258636,
2.8575,-0.285797,
2.858,-0.333862,
2.8585,-0.376434,
2.859,-0.385132,
2.8595,-0.382538,
2.86,-0.38559,
2.8605,-0.367126,
2.861,-0.280457,
2.8615,-0.0924683,
2.862,0.123901,
2.8625,0.269012,
2.863,0.372925,
2.8635,0.482941,
2.864,0.525208,
2.8645,0.471344,
2.865,0.374451,
2.8655,0.276184,
2.866,0.217896,
2.8665,0.171661,
2.867,0.0956726,
2.8675,0.0238037,
2.868,-0.00778198,
2.8685,-0.0135803,
2.869,0.0012207,
2.8695,0.00656128,
2.87,-0.00396729,
2.8705,0.000762939,
2.871,0.0393677,
2.8715,0.0718689,
2.872,0.0480652,
2.8725,-0.00976563,
2.873,-0.0256348,
2.8735,-0.00213623,
2.874,-0.0050354,
2.8745,-0.0369263,
2.875,-0.0299072,
2.8755,0.00640869,
2.876,0.017395,
2.8765,-0.0151062,
2.877,-0.055542,
2.8775,-0.038147,
2.878,0.0280762,
2.8785,0.0608826,
2.879,0.0267029,
2.8795,-0.0186157,
2.88,-0.04776,
2.8805,-0.0671387,
2.881,-0.0654602,
2.8815,0.00549316,
2.882,0.159912,
2.8825,0.289459,
2.883,0.308228,
2.8835,0.243073,
2.884,0.157776,
2.8845,0.0798035,
2.885,-0.00610352,
2.8855,-0.0819397,
2.886,-0.100861,
2.8865,-0.0674438,
2.887,-0.0370789,
2.8875,-0.0386047,
2.888,-0.0549316,
2.8885,-0.0730896,
2.889,-0.0843811,
2.8895,-0.0759888,
2.89,-0.0663757,
2.8905,-0.0752258,
2.891,-0.0973511,
2.8915,-0.121765,
2.892,-0.128174,
2.8925,-0.102539,
2.893,-0.0723267,
2.8935,-0.0640869,
2.894,-0.0709534,
2.8945,-0.093689,
2.895,-0.140076,
2.8955,-0.194397,
2.896,-0.199432,
2.8965,-0.129089,
2.897,-0.0335693,
2.8975,0.00289917,
2.898,-0.040741,
2.8985,-0.0419617,
2.899,0.0463867,
2.8995,0.105286,
2.9,0.0665283,
2.9005,-0.00518799,
2.901,-0.0402832,
2.9015,-0.043335,
2.902,-0.0427246,
2.9025,-0.0592041,
2.903,-0.109406,
2.9035,-0.178223,
2.904,-0.233612,
2.9045,-0.220947,
2.905,-0.10376,
2.9055,0.0691223,
2.906,0.229034,
2.9065,0.349274,
2.907,0.370789,
2.9075,0.246277,
2.908,0.0668335,
2.9085,-0.0106812,
2.909,0.0392151,
2.9095,0.119019,
2.91,0.129547,
2.9105,0.065918,
2.911,0.000762939,
2.9115,-0.00335693,
2.912,0.0205994,
2.9125,0.0590515,
2.913,0.108643,
2.9135,0.115356,
2.914,0.0782776,
2.9145,0.0648499,
2.915,0.0857544,
2.9155,0.080719,
2.916,0.0648499,
2.9165,0.0759888,
2.917,0.0874329,
2.9175,0.0802612,
2.918,0.0698853,
2.9185,0.0531006,
2.919,0.0312805,
2.9195,0.00564575,
2.92,-0.0279236,
2.9205,-0.0750732,
2.921,-0.10437,
2.9215,-0.098877,
2.922,-0.0746155,
2.9225,-0.0585938,
2.923,-0.0559998,
2.9235,-0.0634766,
2.924,-0.0665283,
2.9245,-0.0572205,
2.925,-0.0546265,
2.9255,-0.0793457,
2.926,-0.119019,
2.9265,-0.138092,
2.927,-0.144348,
2.9275,-0.178223,
2.928,-0.209961,
2.9285,-0.192413,
2.929,-0.128784,
2.9295,-0.0788879,
2.93,-0.0744629,
2.9305,-0.0830078,
2.931,-0.0737,
2.9315,-0.0622559,
2.932,-0.0367737,
2.9325,0.0401306,
2.933,0.133667,
2.9335,0.154266,
2.934,0.0914001,
2.9345,0.00320435,
2.935,-0.0541687,
2.9355,-0.0605774,
2.936,-0.0346375,
2.9365,0.00106812,
2.937,0.0228882,
2.9375,0.0393677,
2.938,0.0498962,
2.9385,0.0210571,
2.939,-0.0492859,
2.9395,-0.138855,
2.94,-0.218811,
2.9405,-0.246582,
2.941,-0.212097,
2.9415,-0.17868,
2.942,-0.194244,
2.9425,-0.252686,
2.943,-0.312042,
2.9435,-0.311584,
2.944,-0.208893,
2.9445,0.000457764,
2.945,0.264282,
2.9455,0.476074,
2.946,0.559692,
2.9465,0.537872,
2.947,0.481873,
2.9475,0.410461,
2.948,0.314636,
2.9485,0.229797,
2.949,0.19577,
2.9495,0.182037,
2.95,0.144653,
2.9505,0.100708,
2.951,0.0645447,
2.9515,0.032959,
2.952,0.0125122,
2.9525,-0.00686646,
2.953,-0.0172424,
2.9535,-0.00686646,
2.954,-0.0286865,
2.9545,-0.0605774,
2.955,-0.0405884,
2.9555,0.0102234,
2.956,0.00656128,
2.9565,-0.0631714,
2.957,-0.141449,
2.9575,-0.20752,
2.958,-0.266571,
2.9585,-0.324402,
2.959,-0.36911,
2.9595,-0.335846,
2.96,-0.209351,
2.9605,-0.0900269,
2.961,-0.00640869,
2.9615,0.0656128,
2.962,0.120239,
2.9625,0.150909,
2.963,0.164185,
2.9635,0.192566,
2.964,0.253448,
2.9645,0.3508,
2.965,0.426941,
2.9655,0.408783,
2.966,0.329285,
2.9665,0.225525,
2.967,0.10025,
2.9675,-0.00396729,
2.968,-0.0331116,
2.9685,-0.00396729,
2.969,0.0341797,
2.9695,0.030365,
2.97,-0.022583,
2.9705,-0.0790405,
2.971,-0.104675,
2.9715,-0.107727,
2.972,-0.105438,
2.9725,-0.0900269,
2.973,-0.062561,
2.9735,-0.0737,
2.974,-0.122375,
2.9745,-0.180054,
2.975,-0.235596,
2.9755,-0.267792,
2.976,-0.286713,
2.9765,-0.315552,
2.977,-0.336151,
2.9775,-0.317688,
2.978,-0.280914,
2.9785,-0.216064,
2.979,-0.101624,
2.9795,0.0308228,
2.98,0.104828,
2.9805,0.106049,
2.981,0.106049,
2.9815,0.147095,
2.982,0.206299,
2.9825,0.242157,
2.983,0.252686,
2.9835,0.264282,
2.984,0.257721,
2.9845,0.201263,
2.985,0.119324,
2.9855,0.0593567,
2.986,0.0126648,
2.9865,-0.0427246,
2.987,-0.0982666,
2.9875,-0.134583,
2.988,-0.144958,
2.9885,-0.149689,
2.989,-0.146942,
2.9895,-0.0932312,
2.99,-0.045166,
2.9905,-0.045929,
2.991,-0.0758362,
2.9915,-0.119629,
2.992,-0.159302,
2.9925,-0.174866,
2.993,-0.116882,
2.9935,0.0302124,
2.994,0.166016,
2.9945,0.207977,
2.995,0.198212,
2.9955,0.166626,
2.996,0.0747681,
2.9965,-0.070343,
2.997,-0.157471,
2.9975,-0.112915,
2.998,-0.0248718,
2.9985,0.0354004,
2.999,0.0299072,
2.9995,0.0151062,
3,0.0648499,
3.0005,0.1474,
3.001,0.186768,
3.0015,0.165253,
3.002,0.0987244,
3.0025,0.0201416,
3.003,-0.0463867,
3.0035,-0.0819397,
3.004,-0.0485229,
3.0045,0.0230408,
3.005,0.0544739,
3.0055,0.0604248,
3.006,0.0759888,
3.0065,0.0508118,
3.007,-0.0350952,
3.0075,-0.124359,
3.008,-0.175018,
3.0085,-0.211029,
3.009,-0.243073,
3.0095,-0.248413,
3.01,-0.227661,
3.0105,-0.235443,
3.011,-0.244598,
3.0115,-0.183411,
3.012,-0.0502014,
3.0125,0.0952148,
3.013,0.226746,
3.0135,0.288086,
3.014,0.222931,
3.0145,0.104218,
3.015,0.0569153,
3.0155,0.085144,
3.016,0.116272,
3.0165,0.113525,
3.017,0.112,
3.0175,0.106964,
3.018,0.0518799,
3.0185,-0.019989,
3.019,-0.0848389,
3.0195,-0.122833,
3.02,-0.10849,
3.0205,-0.0559998,
3.021,-0.0413513,
3.0215,-0.105896,
3.022,-0.167542,
3.0225,-0.162811,
3.023,-0.14679,
3.0235,-0.183563,
3.024,-0.241089,
3.0245,-0.24704,
3.025,-0.178223,
3.0255,-0.0726318,
3.026,0.0302124,
3.0265,0.123901,
3.027,0.189209,
3.0275,0.206909,
3.028,0.189056,
3.0285,0.200195,
3.029,0.259705,
3.0295,0.273132,
3.03,0.215759,
3.0305,0.106506,
3.031,-0.0201416,
3.0315,-0.0866699,
3.032,-0.0566101,
3.0325,-0.0285339,
3.033,-0.065155,
3.0335,-0.139008,
3.034,-0.200043,
3.0345,-0.217133,
3.035,-0.181274,
3.0355,-0.0999451,
3.036,0.0164795,
3.0365,0.136719,
3.037,0.218353,
3.0375,0.233002,
3.038,0.175629,
3.0385,0.0959778,
3.039,0.0761414,
3.0395,0.042572,
3.04,-0.058136,
3.0405,-0.112915,
3.041,-0.0875854,
3.0415,-0.0413513,
3.042,0.0215149,
3.0425,0.107727,
3.043,0.144958,
3.0435,0.108795,
3.044,0.0741577,
3.0445,0.0621033,
3.045,0.0447083,
3.0455,0.0112915,
3.046,-0.0665283,
3.0465,-0.166321,
3.047,-0.21225,
3.0475,-0.220337,
3.048,-0.222626,
3.0485,-0.175018,
3.049,-0.0965881,
3.0495,-0.0614929,
3.05,-0.0308228,
3.0505,0.0756836,
3.051,0.218506,
3.0515,0.298767,
3.052,0.297089,
3.0525,0.203247,
3.053,0.0559998,
3.0535,-0.0865173,
3.054,-0.198059,
3.0545,-0.214996,
3.055,-0.179443,
3.0555,-0.166931,
3.056,-0.098877,
3.0565,0.14389,
3.057,0.45105,
3.0575,0.603943,
3.058,0.541687,
3.0585,0.376129,
3.059,0.235291,
3.0595,0.140228,
3.06,0.0483704,
3.0605,-0.0605774,
3.061,-0.155487,
3.0615,-0.222473,
3.062,-0.288086,
3.0625,-0.359192,
3.063,-0.391083,
3.0635,-0.353546,
3.064,-0.310364,
3.0645,-0.279694,
3.065,-0.207214,
3.0655,-0.0445557,
3.066,0.171356,
3.0665,0.355682,
3.067,0.448456,
3.0675,0.506592,
3.068,0.532837,
3.0685,0.484161,
3.069,0.343018,
3.0695,0.155182,
3.07,0.00137329,
3.0705,-0.0924683,
3.071,-0.14389,
3.0715,-0.177765,
3.072,-0.192566,
3.0725,-0.196228,
3.073,-0.200806,
3.0735,-0.196228,
3.074,-0.186157,
3.0745,-0.177307,
3.075,-0.150909,
3.0755,-0.103455,
3.076,-0.0662231,
3.0765,-0.0556946,
3.077,-0.080719,
3.0775,-0.122986,
3.078,-0.158386,
3.0785,-0.121613,
3.079,-0.0202942,
3.0795,0.0646973,
3.08,0.093689,
3.0805,0.113831,
3.081,0.145264,
3.0815,0.1474,
3.082,0.0726318,
3.0825,-0.0422668,
3.083,-0.0761414,
3.0835,-0.0274658,
3.084,0.00793457,
3.0845,-0.0210571,
3.085,-0.0802612,
3.0855,-0.128937,
3.086,-0.131378,
3.0865,-0.105286,
3.087,-0.0697327,
3.0875,-0.0445557,
3.088,-0.0569153,
3.0885,-0.0901794,
3.089,-0.10498,
3.0895,-0.0927734,
3.09,-0.0480652,
3.0905,0.0134277,
3.091,0.0724792,
3.0915,0.113525,
3.092,0.132904,
3.0925,0.12085,
3.093,0.0645447,
3.0935,-0.00549316,
3.094,-0.0485229,
3.0945,-0.0498962,
3.095,-0.0518799,
3.0955,-0.057373,
3.096,-0.0486755,
3.0965,-0.0230408,
3.097,-0.00946045,
3.0975,-0.0114441,
3.098,-0.00183105,
3.0985,0.0350952,
3.099,0.0758362,
3.0995,0.0639343,
3.1,-0.00320435,
3.1005,-0.0559998,
3.101,-0.0714111,
3.1015,-0.0839233,
3.102,-0.114441,
3.1025,-0.131683,
3.103,-0.115814,
3.1035,-0.078125,
3.104,-0.0320435,
3.1045,-0.0154114,
3.105,-0.0471497,
3.1055,-0.0804138,
3.106,-0.0909424,
3.1065,-0.105743,
3.107,-0.128021,
3.1075,-0.165405,
3.108,-0.206909,
3.1085,-0.245972,
3.109,-0.242004,
3.1095,-0.193329,
3.11,-0.110931,
3.1105,-0.0111389,
3.111,0.0628662,
3.1115,0.0756836,
3.112,0.0457764,
3.1125,0.017395,
3.113,-0.00930786,
3.1135,-0.0468445,
3.114,-0.0827026,
3.1145,-0.112,
3.115,-0.149994,
3.1155,-0.148315,
3.116,-0.0315857,
3.1165,0.222473,
3.117,0.467987,
3.1175,0.582123,
3.118,0.565033,
3.1185,0.434875,
3.119,0.241547,
3.1195,0.0712585,
3.12,-0.0552368,
3.1205,-0.123138,
3.121,-0.13092,
3.1215,-0.0630188,
3.122,0.108032,
3.1225,0.258789,
3.123,0.271149,
3.1235,0.181885,
3.124,0.0616455,
3.1245,-0.0326538,
3.125,-0.0828552,
3.1255,-0.102539,
3.126,-0.100708,
3.1265,-0.0804138,
3.127,-0.040741,
3.1275,0.0161743,
3.128,0.085907,
3.1285,0.153809,
3.129,0.188293,
3.1295,0.195313,
3.13,0.187378,
3.1305,0.114746,
3.131,-0.0151062,
3.1315,-0.15274,
3.132,-0.249939,
3.1325,-0.263519,
3.133,-0.233917,
3.1335,-0.18631,
3.134,-0.151215,
3.1345,-0.174255,
3.135,-0.220184,
3.1355,-0.173035,
3.136,-0.0486755,
3.1365,0.0276184,
3.137,0.087738,
3.1375,0.203247,
3.138,0.332642,
3.1385,0.413666,
3.139,0.4245,
3.1395,0.39093,
3.14,0.368347,
3.1405,0.361328,
3.141,0.330811,
3.1415,0.258789,
3.142,0.1828,
3.1425,0.133209,
3.143,0.0735474,
3.1435,0.00289917,
3.144,-0.0421143,
3.1445,-0.0582886,
3.145,-0.0657654,
3.1455,-0.0643921,
3.146,-0.050354,
3.1465,-0.0566101,
3.147,-0.0968933,
3.1475,-0.134277,
3.148,-0.146637,
3.1485,-0.139771,
3.149,-0.124969,
3.1495,-0.141449,
3.15,-0.179901,
3.1505,-0.21286,
3.151,-0.228119,
3.1515,-0.222931,
3.152,-0.213623,
3.1525,-0.205536,
3.153,-0.192108,
3.1535,-0.168915,
3.154,-0.119629,
3.1545,-0.0440979,
3.155,0.0328064,
3.1555,0.0868225,
3.156,0.108643,
3.1565,0.112457,
3.157,0.108795,
3.1575,0.0740051,
3.158,-0.00396729,
3.1585,-0.0880432,
3.159,-0.120392,
3.1595,-0.126343,
3.16,-0.158234,
3.1605,-0.208435,
3.161,-0.248871,
3.1615,-0.290833,
3.162,-0.328979,
3.1625,-0.30777,
3.163,-0.191193,
3.1635,-0.00320435,
3.164,0.143585,
3.1645,0.169525,
3.165,0.126343,
3.1655,0.0662231,
3.166,-0.010376,
3.1665,-0.0671387,
3.167,-0.0494385,
3.1675,0.00656128,
3.168,0.0546265,
3.1685,0.102081,
3.169,0.141602,
3.1695,0.180511,
3.17,0.224152,
3.1705,0.244904,
3.171,0.241241,
3.1715,0.218506,
3.172,0.207672,
3.1725,0.266724,
3.173,0.341492,
3.1735,0.329285,
