0,0.00427246,
0.0005,0.0109863,
0.001,0.0100708,
0.0015,0.00595093,
0.002,0.0012207,
0.0025,-0.00228882,
0.003,-0.00442505,
0.0035,-0.00366211,
0.004,0.00137329,
0.0045,0.00137329,
0.005,-0.00595093,
0.0055,-0.00961304,
0.006,-0.0109863,
0.0065,-0.017395,
0.007,-0.0267029,
0.0075,-0.0227356,
0.008,-0.00717163,
0.0085,-0.00137329,
0.009,0.000762939,
0.0095,-0.00137329,
0.01,-0.0144958,
0.0105,-0.0186157,
0.011,-0.0115967,
0.0115,-0.00930786,
0.012,-0.0062561,
0.0125,0.0050354,
0.013,0.0128174,
0.0135,0.0105286,
0.014,0.00152588,
0.0145,-0.00366211,
0.015,-0.00442505,
0.0155,-0.0102234,
0.016,-0.015564,
0.0165,-0.0170898,
0.017,-0.0137329,
0.0175,-0.0012207,
0.018,0.0172424,
0.0185,0.0256348,
0.019,0.0245667,
0.0195,0.0204468,
0.02,0.0123596,
0.0205,0.00335693,
0.021,0.00106812,
0.0215,0.00961304,
0.022,0.00808716,
0.0225,-0.00427246,
0.023,-0.0100708,
0.0235,-0.00473022,
0.024,0.000610352,
0.0245,-0.00396729,
0.025,-0.00549316,
0.0255,-0.00137329,
0.026,-0.000610352,
0.0265,-0.000915527,
0.027,-0.00320435,
0.0275,-0.00915527,
0.028,-0.0141907,
0.0285,-0.0164795,
0.029,-0.0149536,
0.0295,-0.0115967,
0.03,-0.00869751,
0.0305,-0.00274658,
0.031,-0.00396729,
0.0315,-0.00946045,
0.032,-0.00701904,
0.0325,0.00198364,
0.033,0.00839233,
0.0335,0.00549316,
0.034,-0.00152588,
0.0345,-0.00366211,
0.035,-0.00488281,
0.0355,-0.00411987,
0.036,-0.00335693,
0.0365,-0.00198364,
0.037,-0.00320435,
0.0375,-0.00930786,
0.038,-0.0117493,
0.0385,-0.0100708,
0.039,-0.00869751,
0.0395,-0.00961304,
0.04,-0.010376,
0.0405,-0.00915527,
0.041,-0.00991821,
0.0415,-0.0102234,
0.042,-0.00915527,
0.0425,-0.00854492,
0.043,-0.00839233,
0.0435,-0.00839233,
0.044,-0.00808716,
0.0445,-0.00823975,
0.045,-0.00808716,
0.0455,-0.00823975,
0.046,-0.00808716,
0.0465,-0.00854492,
0.047,-0.00808716,
0.0475,-0.00778198,
0.048,-0.00427246,
0.0485,0.00167847,
0.049,0.0088501,
0.0495,0.0154114,
0.05,0.0137329,
0.0505,0.00137329,
0.051,-0.00564575,
0.0515,-0.00793457,
0.052,-0.00610352,
0.0525,0.000305176,
0.053,0.00289917,
0.0535,0.0038147,
0.054,0.00411987,
0.0545,0.00442505,
0.055,0.00305176,
0.0555,-0.00335693,
0.056,-0.0062561,
0.0565,-0.0131226,
0.057,-0.00961304,
0.0575,0.00183105,
0.058,0.00869751,
0.0585,0.00457764,
0.059,-0.00244141,
0.0595,-0.00686646,
0.06,-0.0062561,
0.0605,-0.00595093,
0.061,-0.00564575,
0.0615,-0.00579834,
0.062,-0.00564575,
0.0625,-0.00549316,
0.063,-0.000915527,
0.0635,-0.000762939,
0.064,-0.00228882,
0.0645,-0.00457764,
0.065,-0.00549316,
0.0655,-0.00244141,
0.066,-0.00320435,
0.0665,-0.00579834,
0.067,-0.00595093,
0.0675,-0.0038147,
0.068,-0.0012207,
0.0685,0,
0.069,-0.00854492,
0.0695,-0.0195313,
0.07,-0.0204468,
0.0705,-0.0143433,
0.071,-0.0114441,
0.0715,-0.0117493,
0.072,-0.00610352,
0.0725,0.000152588,
0.073,-0.00564575,
0.0735,-0.019989,
0.074,-0.0283813,
0.0745,-0.0204468,
0.075,-0.00564575,
0.0755,0.0123596,
0.076,0.0205994,
0.0765,0.0149536,
0.077,0.00473022,
0.0775,0.00335693,
0.078,0.00396729,
0.0785,0.00549316,
0.079,0.0062561,
0.0795,0.0105286,
0.08,0.0201416,
0.0805,0.0263977,
0.081,0.0256348,
0.0815,0.0163269,
0.082,0.00396729,
0.0825,-0.00915527,
0.083,-0.0163269,
0.0835,-0.0209045,
0.084,-0.0238037,
0.0845,-0.0178528,
0.085,-0.00579834,
0.0855,0.010376,
0.086,0.0172424,
0.0865,0.017395,
0.087,0.0178528,
0.0875,0.0178528,
0.088,0.0151062,
0.0885,0.00640869,
0.089,0.00289917,
0.0895,0.00488281,
0.09,0.00640869,
0.0905,0.0108337,
0.091,0.00930786,
0.0915,0.00106812,
0.092,-0.00564575,
0.0925,-0.00793457,
0.093,-0.00976563,
0.0935,-0.0135803,
0.094,-0.0132751,
0.0945,-0.00808716,
0.095,-0.00305176,
0.0955,0.000610352,
0.096,0.000457764,
0.0965,-0.00946045,
0.097,-0.0146484,
0.0975,-0.00762939,
0.098,0.00320435,
0.0985,0.0050354,
0.099,0.00549316,
0.0995,0.00152588,
0.1,-0.00198364,
0.1005,-0.00473022,
0.101,-0.00549316,
0.1015,-0.00549316,
0.102,-0.00228882,
0.1025,0.000457764,
0.103,0.00305176,
0.1035,0.00350952,
0.104,0.0038147,
0.1045,0.00244141,
0.105,0.00152588,
0.1055,0.00167847,
0.106,0.00167847,
0.1065,0.000305176,
0.107,-0.0012207,
0.1075,-0.00610352,
0.108,-0.012207,
0.1085,-0.014801,
0.109,-0.0119019,
0.1095,-0.00762939,
0.11,-0.0062561,
0.1105,-0.00686646,
0.111,-0.00442505,
0.1115,-0.00198364,
0.112,-0.00289917,
0.1125,-0.00274658,
0.113,0.0012207,
0.1135,0.0038147,
0.114,0.00732422,
0.1145,0.00823975,
0.115,0.00396729,
0.1155,0.000152588,
0.116,-0.00564575,
0.1165,-0.0109863,
0.117,-0.0138855,
0.1175,-0.0123596,
0.118,-0.0109863,
0.1185,-0.010376,
0.119,-0.00671387,
0.1195,-0.00106812,
0.12,0.00274658,
0.1205,0.00411987,
0.121,0.00411987,
0.1215,0.00274658,
0.122,0.00320435,
0.1225,0.00213623,
0.123,-0.000915527,
0.1235,-0.000915527,
0.124,0,
0.1245,-0.00274658,
0.125,-0.0117493,
0.1255,-0.0112915,
0.126,-0.00137329,
0.1265,0.00640869,
0.127,0.0100708,
0.1275,0.0141907,
0.128,0.0169373,
0.1285,0.0213623,
0.129,0.0254822,
0.1295,0.0236511,
0.13,0.0228882,
0.1305,0.0201416,
0.131,0.017395,
0.1315,0.014801,
0.132,0.0088501,
0.1325,0.00198364,
0.133,-0.00350952,
0.1335,-0.0088501,
0.134,-0.0115967,
0.1345,-0.0128174,
0.135,-0.0149536,
0.1355,-0.0178528,
0.136,-0.0286865,
0.1365,-0.0300598,
0.137,-0.0242615,
0.1375,-0.0219727,
0.138,-0.0119019,
0.1385,0.00473022,
0.139,0.00930786,
0.1395,-0.00442505,
0.14,-0.01297,
0.1405,-0.00793457,
0.141,-0.00350952,
0.1415,-0.0088501,
0.142,-0.0163269,
0.1425,-0.0131226,
0.143,-0.00335693,
0.1435,0.00457764,
0.144,0.0128174,
0.1445,0.0177002,
0.145,0.0222778,
0.1455,0.0312805,
0.146,0.0370789,
0.1465,0.0297546,
0.147,0.0135803,
0.1475,0,
0.148,-0.00595093,
0.1485,-0.00335693,
0.149,-0.0012207,
0.1495,-0.000610352,
0.15,0.00259399,
0.1505,0.00701904,
0.151,0.00823975,
0.1515,0.00701904,
0.152,0.0038147,
0.1525,0.000305176,
0.153,-0.00213623,
0.1535,-0.00137329,
0.154,-0.0012207,
0.1545,-0.000610352,
0.155,-0.000762939,
0.1555,-0.00259399,
0.156,-0.00473022,
0.1565,-0.00671387,
0.157,-0.00747681,
0.1575,-0.00549316,
0.158,-0.00732422,
0.1585,-0.0125122,
0.159,-0.0125122,
0.1595,-0.00564575,
0.16,-0.00305176,
0.1605,-0.00473022,
0.161,-0.00366211,
0.1615,-0.00183105,
0.162,-0.0012207,
0.1625,-0.00640869,
0.163,-0.0123596,
0.1635,-0.0125122,
0.164,-0.00518799,
0.1645,0.000152588,
0.165,0.00183105,
0.1655,-0.000915527,
0.166,-0.00595093,
0.1665,-0.00732422,
0.167,-0.00488281,
0.1675,-0.00579834,
0.168,-0.010376,
0.1685,-0.010376,
0.169,-0.00595093,
0.1695,-0.00549316,
0.17,-0.00762939,
0.1705,-0.0111389,
0.171,-0.012207,
0.1715,-0.00823975,
0.172,-0.00198364,
0.1725,-0.00473022,
0.173,-0.0137329,
0.1735,-0.0119019,
0.174,-0.00350952,
0.1745,0.000152588,
0.175,-0.00289917,
0.1755,-0.00152588,
0.176,0.000305176,
0.1765,-0.00213623,
0.177,-0.00976563,
0.1775,-0.0183105,
0.178,-0.0204468,
0.1785,-0.0187683,
0.179,-0.0131226,
0.1795,-0.00732422,
0.18,-0.0012207,
0.1805,0.00274658,
0.181,0.0038147,
0.1815,0.00549316,
0.182,0.00473022,
0.1825,0.00411987,
0.183,0.00183105,
0.1835,-0.00106812,
0.184,0.000152588,
0.1845,0.000152588,
0.185,0.00289917,
0.1855,0.00701904,
0.186,0.00686646,
0.1865,0.00457764,
0.187,-0.00350952,
0.1875,-0.00564575,
0.188,-0.00564575,
0.1885,-0.00411987,
0.189,-0.00350952,
0.1895,-0.00457764,
0.19,-0.0038147,
0.1905,-0.0012207,
0.191,0.00244141,
0.1915,0.00686646,
0.192,0.00854492,
0.1925,0.00701904,
0.193,0.00488281,
0.1935,0.00152588,
0.194,0.00106812,
0.1945,0.00152588,
0.195,0.00320435,
0.1955,0.00213623,
0.196,-0.0012207,
0.1965,-0.00152588,
0.197,-0.00228882,
0.1975,-0.00305176,
0.198,-0.00488281,
0.1985,-0.00686646,
0.199,-0.00640869,
0.1995,-0.00305176,
0.2,-0.00320435,
0.2005,-0.00732422,
0.201,-0.0117493,
0.2015,-0.0161743,
0.202,-0.0183105,
0.2025,-0.0250244,
0.203,-0.0372314,
0.2035,-0.0346375,
0.204,-0.0212097,
0.2045,-0.0186157,
0.205,-0.0138855,
0.2055,0.00183105,
0.206,0.0184631,
0.2065,0.0239563,
0.207,0.0169373,
0.2075,-0.00198364,
0.208,-0.0209045,
0.2085,-0.0222778,
0.209,-0.0224304,
0.2095,-0.0334167,
0.21,-0.0398254,
0.2105,-0.0234985,
0.211,-0.0088501,
0.2115,-0.00442505,
0.212,-0.00411987,
0.2125,0.00167847,
0.213,0.0106812,
0.2135,0.012207,
0.214,0.0143433,
0.2145,0.0239563,
0.215,0.0332642,
0.2155,0.0325012,
0.216,0.0282288,
0.2165,0.0231934,
0.217,0.0196838,
0.2175,0.0115967,
0.218,0.00274658,
0.2185,0.00350952,
0.219,0.0163269,
0.2195,0.0263977,
0.22,0.0253296,
0.2205,0.0227356,
0.221,0.0228882,
0.2215,0.025177,
0.222,0.0233459,
0.2225,0.0137329,
0.223,0.00198364,
0.2235,-0.00595093,
0.224,-0.0141907,
0.2245,-0.0201416,
0.225,-0.0213623,
0.2255,-0.0233459,
0.226,-0.0213623,
0.2265,-0.0138855,
0.227,-0.00839233,
0.2275,-0.00823975,
0.228,-0.0108337,
0.2285,-0.0111389,
0.229,-0.0114441,
0.2295,-0.0178528,
0.23,-0.0292969,
0.2305,-0.0375366,
0.231,-0.0421143,
0.2315,-0.0500488,
0.232,-0.0500488,
0.2325,-0.0431824,
0.233,-0.0335693,
0.2335,-0.0247192,
0.234,-0.00793457,
0.2345,0.00976563,
0.235,0.00869751,
0.2355,-0.00198364,
0.236,-0.00869751,
0.2365,-0.0123596,
0.237,-0.0141907,
0.2375,-0.0114441,
0.238,-0.00442505,
0.2385,0.0161743,
0.239,0.0492859,
0.2395,0.0715637,
0.24,0.0662231,
0.2405,0.0428772,
0.241,0.0273132,
0.2415,0.0114441,
0.242,-0.0108337,
0.2425,-0.0297546,
0.243,-0.0404358,
0.2435,-0.0382996,
0.244,-0.0248718,
0.2445,-0.00961304,
0.245,0.01297,
0.2455,0.0271606,
0.246,0.0100708,
0.2465,-0.0111389,
0.247,-0.00900269,
0.2475,0.00274658,
0.248,0.00961304,
0.2485,0.0115967,
0.249,0.00549316,
0.2495,-0.00167847,
0.25,-0.000915527,
0.2505,-0.00411987,
0.251,-0.0144958,
0.2515,-0.0195313,
0.252,-0.0106812,
0.2525,0.00457764,
0.253,0.0158691,
0.2535,0.0314331,
0.254,0.04776,
0.2545,0.0558472,
0.255,0.050354,
0.2555,0.0361633,
0.256,0.0212097,
0.2565,0.00732422,
0.257,-0.0038147,
0.2575,-0.012207,
0.258,-0.0125122,
0.2585,-0.0180054,
0.259,-0.0288391,
0.2595,-0.030365,
0.26,-0.0102234,
0.2605,0.0187683,
0.261,0.0289917,
0.2615,0.0152588,
0.262,-0.000457764,
0.2625,-0.00564575,
0.263,-0.00656128,
0.2635,-0.0143433,
0.264,-0.0247192,
0.2645,-0.0257874,
0.265,-0.025177,
0.2655,-0.0346375,
0.266,-0.0431824,
0.2665,-0.0305176,
0.267,0.00305176,
0.2675,0.0163269,
0.268,0.00442505,
0.2685,-0.0106812,
0.269,-0.0180054,
0.2695,-0.0167847,
0.27,-0.0109863,
0.2705,-0.0088501,
0.271,-0.0128174,
0.2715,-0.0141907,
0.272,-0.00610352,
0.2725,-0.00396729,
0.273,-0.00793457,
0.2735,-0.00839233,
0.274,-0.00808716,
0.2745,-0.00457764,
0.275,-0.00183105,
0.2755,0.000152588,
0.276,-0.00198364,
0.2765,-0.00320435,
0.277,-0.00671387,
0.2775,-0.00930786,
0.278,-0.00976563,
0.2785,-0.0062561,
0.279,-0.00579834,
0.2795,-0.0088501,
0.28,-0.0134277,
0.2805,-0.0149536,
0.281,-0.0141907,
0.2815,-0.0178528,
0.282,-0.0175476,
0.2825,-0.00946045,
0.283,0.000762939,
0.2835,0.00198364,
0.284,-0.00411987,
0.2845,-0.00701904,
0.285,-0.00671387,
0.2855,-0.00915527,
0.286,-0.0119019,
0.2865,-0.015564,
0.287,-0.012207,
0.2875,-0.00335693,
0.288,-0.0012207,
0.2885,-0.00640869,
0.289,-0.00442505,
0.2895,0.000610352,
0.29,-0.00274658,
0.2905,-0.00671387,
0.291,-0.00854492,
0.2915,-0.00289917,
0.292,-0.00640869,
0.2925,-0.0183105,
0.293,-0.0216675,
0.2935,-0.0164795,
0.294,-0.0134277,
0.2945,-0.0108337,
0.295,-0.00762939,
0.2955,-0.00793457,
0.296,-0.0141907,
0.2965,-0.0167847,
0.297,-0.0149536,
0.2975,-0.0135803,
0.298,-0.0149536,
0.2985,-0.0184631,
0.299,-0.025177,
0.2995,-0.0286865,
0.3,-0.0279236,
0.3005,-0.0204468,
0.301,-0.0062561,
0.3015,0.0125122,
0.302,0.0378418,
0.3025,0.0640869,
0.303,0.0701904,
0.3035,0.0390625,
0.304,-0.00427246,
0.3045,-0.0222778,
0.305,-0.00106812,
0.3055,0.0296021,
0.306,0.0514221,
0.3065,0.06073,
0.307,0.0482178,
0.3075,0.0204468,
0.308,-0.000152588,
0.3085,-0.0100708,
0.309,-0.0119019,
0.3095,-0.00656128,
0.31,0.0154114,
0.3105,0.0512695,
0.311,0.0834656,
0.3115,0.0831604,
0.312,0.0546265,
0.3125,0.0245667,
0.313,0.00869751,
0.3135,0.00137329,
0.314,-0.00518799,
0.3145,-0.00732422,
0.315,-0.00549316,
0.3155,-0.00900269,
0.316,-0.0166321,
0.3165,-0.022583,
0.317,-0.0184631,
0.3175,-0.00228882,
0.318,0.00823975,
0.3185,0.00137329,
0.319,-0.00915527,
0.3195,-0.0111389,
0.32,-0.00823975,
0.3205,-0.00961304,
0.321,-0.0134277,
0.3215,-0.0137329,
0.322,-0.0151062,
0.3225,-0.0172424,
0.323,-0.0175476,
0.3235,-0.0152588,
0.324,-0.014801,
0.3245,-0.0151062,
0.325,-0.0138855,
0.3255,-0.0131226,
0.326,-0.0115967,
0.3265,-0.0111389,
0.327,-0.0120544,
0.3275,-0.0109863,
0.328,-0.00778198,
0.3285,-0.00595093,
0.329,-0.00610352,
0.3295,-0.0088501,
0.33,-0.0105286,
0.3305,-0.01297,
0.331,-0.00930786,
0.3315,0.00259399,
0.332,0.00640869,
0.3325,-0.00473022,
0.333,-0.0186157,
0.3335,-0.0224304,
0.334,-0.0204468,
0.3345,-0.00946045,
0.335,-0.00167847,
0.3355,-0.000610352,
0.336,-0.00228882,
0.3365,-0.00350952,
0.337,-0.00976563,
0.3375,-0.0170898,
0.338,-0.0161743,
0.3385,-0.0105286,
0.339,-0.00274658,
0.3395,-0.000610352,
0.34,-0.00335693,
0.3405,-0.00350952,
0.341,-0.00167847,
0.3415,0.000610352,
0.342,-0.000610352,
0.3425,-0.00823975,
0.343,-0.0233459,
0.3435,-0.0372314,
0.344,-0.0331116,
0.3445,-0.0184631,
0.345,-0.0112915,
0.3455,-0.0149536,
0.346,-0.0210571,
0.3465,-0.0161743,
0.347,0.00915527,
0.3475,0.0366211,
0.348,0.0439453,
0.3485,0.0357056,
0.349,0.025177,
0.3495,0.0262451,
0.35,0.0456238,
0.3505,0.065918,
0.351,0.0592041,
0.3515,0.0337219,
0.352,0.0109863,
0.3525,0.000610352,
0.353,0.00106812,
0.3535,0.00915527,
0.354,0.0131226,
0.3545,0.0143433,
0.355,0.0204468,
0.3555,0.0250244,
0.356,0.0151062,
0.3565,-0.00915527,
0.357,-0.0302124,
0.3575,-0.0369263,
0.358,-0.0379944,
0.3585,-0.0375366,
0.359,-0.0376892,
0.3595,-0.0375366,
0.36,-0.032959,
0.3605,0.00762939,
0.361,0.0212097,
0.3615,0.0152588,
0.362,0.00305176,
0.3625,-0.00579834,
0.363,-0.0132751,
0.3635,-0.0231934,
0.364,-0.0335693,
0.3645,-0.0395203,
0.365,-0.0375366,
0.3655,-0.0358582,
0.366,-0.0352478,
0.3665,-0.0350952,
0.367,-0.0335693,
0.3675,-0.0216675,
0.368,-0.00534058,
0.3685,0.00442505,
0.369,0.00167847,
0.3695,-0.00610352,
0.37,-0.00762939,
0.3705,-0.00137329,
0.371,0.00671387,
0.3715,0.00717163,
0.372,0.00320435,
0.3725,-0.00442505,
0.373,-0.00900269,
0.3735,-0.00839233,
0.374,-0.00183105,
0.3745,0.00198364,
0.375,0.0012207,
0.3755,0.00717163,
0.376,0.017395,
0.3765,0.0177002,
0.377,0.0102234,
0.3775,0.00259399,
0.378,-0.00366211,
0.3785,-0.0100708,
0.379,-0.0119019,
0.3795,-0.0201416,
0.38,-0.0234985,
0.3805,-0.0201416,
0.381,-0.0140381,
0.3815,-0.0138855,
0.382,-0.0131226,
0.3825,-0.00534058,
0.383,-0.000610352,
0.3835,-0.00610352,
0.384,-0.0190735,
0.3845,-0.0271606,
0.385,-0.0299072,
0.3855,-0.0332642,
0.386,-0.0314331,
0.3865,-0.0288391,
0.387,-0.0282288,
0.3875,-0.0280762,
0.388,-0.0314331,
0.3885,-0.0389099,
0.389,-0.0448608,
0.3895,-0.0311279,
0.39,-0.000610352,
0.3905,0.0375366,
0.391,0.0537109,
0.3915,0.0320435,
0.392,0.00289917,
0.3925,-0.0108337,
0.393,-0.00762939,
0.3935,-0.00808716,
0.394,-0.015564,
0.3945,-0.0126648,
0.395,0.00671387,
0.3955,0.0271606,
0.396,0.0405884,
0.3965,0.0436401,
0.397,0.0495911,
0.3975,0.0535583,
0.398,0.0564575,
0.3985,0.0566101,
0.399,0.0482178,
0.3995,0.0317383,
0.4,0.019989,
0.4005,0.0276184,
0.401,0.0492859,
0.4015,0.0653076,
0.402,0.0523376,
0.4025,0.0259399,
0.403,0.0158691,
0.4035,0.0160217,
0.404,0.00656128,
0.4045,-0.00564575,
0.405,-0.00274658,
0.4055,0.0114441,
0.406,0.022583,
0.4065,0.0163269,
0.407,0.00778198,
0.4075,0.000457764,
0.408,0.0012207,
0.4085,0.0125122,
0.409,0.0169373,
0.4095,0.0117493,
0.41,-0.00167847,
0.4105,-0.0234985,
0.411,-0.0454712,
0.4115,-0.0312805,
0.412,0.0170898,
0.4125,0.0421143,
0.413,0.0350952,
0.4135,0.015564,
0.414,0.000457764,
0.4145,-0.00854492,
0.415,-0.0175476,
0.4155,-0.0276184,
0.416,-0.0315857,
0.4165,-0.0291443,
0.417,-0.0265503,
0.4175,-0.0241089,
0.418,-0.0245667,
0.4185,-0.0234985,
0.419,-0.0231934,
0.4195,-0.0259399,
0.42,-0.0279236,
0.4205,-0.0314331,
0.421,-0.0370789,
0.4215,-0.0398254,
0.422,-0.043335,
0.4225,-0.0479126,
0.423,-0.039978,
0.4235,-0.0143433,
0.424,0,
0.4245,-0.00732422,
0.425,-0.0195313,
0.4255,-0.0242615,
0.426,-0.0256348,
0.4265,-0.027771,
0.427,-0.0241089,
0.4275,-0.0114441,
0.428,0.00183105,
0.4285,0.00244141,
0.429,-0.00350952,
0.4295,-0.000610352,
0.43,0.00732422,
0.4305,0.0115967,
0.431,0.00518799,
0.4315,-0.00289917,
0.432,-0.015564,
0.4325,-0.0244141,
0.433,-0.0190735,
0.4335,-0.00717163,
0.434,-0.00473022,
0.4345,-0.00228882,
0.435,0.0111389,
0.4355,0.0212097,
0.436,0.020752,
0.4365,0.0158691,
0.437,0.00869751,
0.4375,-0.0012207,
0.438,-0.00732422,
0.4385,-0.00549316,
0.439,-0.00213623,
0.4395,-0.000610352,
0.44,0.00534058,
0.4405,0.00839233,
0.441,0.00534058,
0.4415,-0.000457764,
0.442,-0.00701904,
0.4425,-0.00686646,
0.443,-0.0062561,
0.4435,-0.00793457,
0.444,-0.00198364,
0.4445,0.00457764,
0.445,-0.00213623,
0.4455,-0.0189209,
0.446,-0.0242615,
0.4465,-0.00823975,
0.447,0.00442505,
0.4475,-0.00198364,
0.448,-0.0195313,
0.4485,-0.032959,
0.449,-0.0457764,
0.4495,-0.0617981,
0.45,-0.0679016,
0.4505,-0.0515747,
0.451,-0.0183105,
0.4515,0.0109863,
0.452,0.0343323,
0.4525,0.0498962,
0.453,0.0473022,
0.4535,0.0292969,
0.454,0.0050354,
0.4545,-0.0123596,
0.455,-0.0112915,
0.4555,-0.00701904,
0.456,-0.00534058,
0.4565,0.00106812,
0.457,0.00839233,
0.4575,0.0143433,
0.458,0.0175476,
0.4585,0.0170898,
0.459,0.0138855,
0.4595,0.00534058,
0.46,-0.0062561,
0.4605,-0.00534058,
0.461,0.0012207,
0.4615,0.00289917,
0.462,-0.000610352,
0.4625,-0.00198364,
0.463,0.00167847,
0.4635,0.00610352,
0.464,0,
0.4645,-0.0120544,
0.465,-0.0178528,
0.4655,-0.0187683,
0.466,-0.019989,
0.4665,-0.0267029,
0.467,-0.0286865,
0.4675,-0.0224304,
0.468,-0.00717163,
0.4685,0.0109863,
0.469,0.0260925,
0.4695,0.038147,
0.47,0.0428772,
0.4705,0.038147,
0.471,0.0257874,
0.4715,0.00793457,
0.472,-0.00183105,
0.4725,0.0012207,
0.473,0.00244141,
0.4735,-0.00198364,
0.474,-0.00244141,
0.4745,0.00335693,
0.475,0.00671387,
0.4755,0.000610352,
0.476,-0.00732422,
0.4765,-0.0100708,
0.477,-0.0123596,
0.4775,-0.0131226,
0.478,-0.0146484,
0.4785,-0.0140381,
0.479,-0.0149536,
0.4795,-0.0152588,
0.48,-0.0152588,
0.4805,-0.0123596,
0.481,-0.0117493,
0.4815,-0.0170898,
0.482,-0.0210571,
0.4825,-0.0195313,
0.483,-0.0195313,
0.4835,-0.0166321,
0.484,-0.0126648,
0.4845,-0.00900269,
0.485,-0.00442505,
0.4855,0.00259399,
0.486,0.0038147,
0.4865,-0.00106812,
0.487,-0.00839233,
0.4875,-0.0164795,
0.488,-0.0218201,
0.4885,-0.0273132,
0.489,-0.0311279,
0.4895,-0.0306702,
0.49,-0.0262451,
0.4905,-0.0152588,
0.491,-0.00305176,
0.4915,-0.00549316,
0.492,-0.015564,
0.4925,-0.0209045,
0.493,-0.0190735,
0.4935,-0.0131226,
0.494,-0.00610352,
0.4945,-0.00366211,
0.495,0.000762939,
0.4955,0.0247192,
0.496,0.0756836,
0.4965,0.115662,
0.497,0.108032,
0.4975,0.0750732,
0.498,0.057373,
0.4985,0.0645447,
0.499,0.0813293,
0.4995,0.0909424,
0.5,0.0927734,
0.5005,0.0814819,
0.501,0.0595093,
0.5015,0.0358582,
0.502,0.0178528,
0.5025,0.0038147,
0.503,-0.00671387,
0.5035,-0.0151062,
0.504,-0.0238037,
0.5045,-0.0300598,
0.505,-0.0305176,
0.5055,-0.0274658,
0.506,-0.0280762,
0.5065,-0.0341797,
0.507,-0.0375366,
0.5075,-0.0312805,
0.508,-0.0231934,
0.5085,-0.0262451,
0.509,-0.0398254,
0.5095,-0.0520325,
0.51,-0.0584412,
0.5105,-0.0646973,
0.511,-0.0712585,
0.5115,-0.0595093,
0.512,-0.0317383,
0.5125,0.00457764,
0.513,0.0404358,
0.5135,0.0630188,
0.514,0.0648499,
0.5145,0.0537109,
0.515,0.0408936,
0.5155,0.0334167,
0.516,0.0294495,
0.5165,0.0248718,
0.517,0.0154114,
0.5175,0.00366211,
0.518,-0.00823975,
0.5185,-0.0184631,
0.519,-0.0366211,
0.5195,-0.0537109,
0.52,-0.0527954,
0.5205,-0.0230408,
0.521,0.00732422,
0.5215,0.00534058,
0.522,-0.0154114,
0.5225,-0.0218201,
0.523,-0.0187683,
0.5235,-0.0222778,
0.524,-0.0218201,
0.5245,-0.00976563,
0.525,0.0119019,
0.5255,0.0344849,
0.526,0.0495911,
0.5265,0.045929,
0.527,0.0308228,
0.5275,0.0164795,
0.528,0.00366211,
0.5285,-0.00595093,
0.529,-0.00686646,
0.5295,-0.0088501,
0.53,-0.0198364,
0.5305,-0.0358582,
0.531,-0.045929,
0.5315,-0.0509644,
0.532,-0.0564575,
0.5325,-0.0532532,
0.533,-0.0471497,
0.5335,-0.0492859,
0.534,-0.0511169,
0.5345,-0.0486755,
0.535,-0.0466919,
0.5355,-0.0506592,
0.536,-0.0621033,
0.5365,-0.0624084,
0.537,-0.0361633,
0.5375,-0.00244141,
0.538,0.0386047,
0.5385,0.0915527,
0.539,0.134277,
0.5395,0.143127,
0.54,0.124207,
0.5405,0.087738,
0.541,0.0492859,
0.5415,0.00839233,
0.542,-0.0219727,
0.5425,-0.0331116,
0.543,-0.0350952,
0.5435,-0.0354004,
0.544,-0.0352478,
0.5445,-0.0352478,
0.545,-0.0350952,
0.5455,-0.0350952,
0.546,-0.0352478,
0.5465,-0.0349426,
0.547,-0.0350952,
0.5475,-0.0350952,
0.548,-0.0350952,
0.5485,-0.0352478,
0.549,-0.0350952,
0.5495,-0.0352478,
0.55,-0.0350952,
0.5505,-0.0350952,
0.551,-0.0349426,
0.5515,-0.0350952,
0.552,-0.0354004,
0.5525,-0.0349426,
0.553,-0.0352478,
0.5535,-0.0349426,
0.554,-0.0352478,
0.5545,-0.0349426,
0.555,-0.0352478,
0.5555,-0.0352478,
0.556,-0.0354004,
0.5565,-0.0350952,
0.557,-0.0349426,
0.5575,-0.0350952,
0.558,-0.0350952,
0.5585,-0.0349426,
0.559,-0.03479,
0.5595,-0.03479,
0.56,-0.0349426,
0.5605,-0.0350952,
0.561,-0.0352478,
0.5615,-0.0349426,
0.562,-0.0350952,
0.5625,-0.0357056,
0.563,-0.03479,
0.5635,-0.0354004,
0.564,-0.0352478,
0.5645,-0.0349426,
0.565,-0.0354004,
0.5655,-0.0349426,
0.566,-0.0352478,
0.5665,-0.0323486,
0.567,-0.00366211,
0.5675,0.0115967,
0.568,0.0291443,
0.5685,0.0500488,
0.569,0.0601196,
0.5695,0.0483704,
0.57,0.0350952,
0.5705,0.0334167,
0.571,0.0411987,
0.5715,0.0393677,
0.572,0.0366211,
0.5725,0.0357056,
0.573,0.0357056,
0.5735,0.0360107,
0.574,0.0358582,
0.5745,0.0314331,
0.575,-0.00930786,
0.5755,-0.0267029,
0.576,-0.0276184,
0.5765,-0.0311279,
0.577,-0.0363159,
0.5775,-0.0297546,
0.578,-0.0202942,
0.5785,-0.0166321,
0.579,-0.0177002,
0.5795,-0.0238037,
0.58,-0.0267029,
0.5805,-0.0280762,
0.581,-0.0276184,
0.5815,-0.027771,
0.582,-0.0276184,
0.5825,-0.0279236,
0.583,-0.027771,
0.5835,-0.0276184,
0.584,-0.0282288,
0.5845,-0.0279236,
0.585,-0.0276184,
0.5855,-0.0279236,
0.586,-0.0280762,
0.5865,-0.027771,
0.587,-0.027771,
0.5875,-0.0279236,
0.588,-0.0276184,
0.5885,-0.027771,
0.589,-0.0280762,
0.5895,-0.0276184,
0.59,-0.0282288,
0.5905,-0.0280762,
0.591,-0.027771,
0.5915,-0.027771,
0.592,-0.027771,
0.5925,-0.0276184,
0.593,-0.027771,
0.5935,-0.0276184,
0.594,-0.0279236,
0.5945,-0.0259399,
0.595,-0.0105286,
0.5955,-0.00534058,
0.596,-0.0152588,
0.5965,-0.0294495,
0.597,-0.0297546,
0.5975,-0.0268555,
0.598,-0.0257874,
0.5985,-0.0309753,
0.599,-0.0447083,
0.5995,-0.065918,
0.6,-0.0782776,
0.6005,-0.0866699,
0.601,-0.085907,
0.6015,-0.0700378,
0.602,-0.0543213,
0.6025,-0.0483704,
0.603,-0.0320435,
0.6035,0.00518799,
0.604,0.0318909,
0.6045,0.037384,
0.605,0.040741,
0.6055,0.0419617,
0.606,0.0378418,
0.6065,0.0288391,
0.607,0.015564,
0.6075,0.00747681,
0.608,0.00793457,
0.6085,0.00808716,
0.609,0.00244141,
0.6095,-0.00106812,
0.61,0.00488281,
0.6105,0.00976563,
0.611,0.0109863,
0.6115,0.0100708,
0.612,0.00915527,
0.6125,0.00900269,
0.613,0.00869751,
0.6135,0.00579834,
0.614,0.00411987,
0.6145,0.00106812,
0.615,0.00213623,
0.6155,0.01297,
0.616,0.0172424,
0.6165,0.00305176,
0.617,-0.0105286,
0.6175,-0.00579834,
0.618,-0.00411987,
0.6185,-0.0213623,
0.619,-0.0431824,
0.6195,-0.0588989,
0.62,-0.0697327,
0.6205,-0.0717163,
0.621,-0.0563049,
0.6215,-0.0279236,
0.622,0.0166321,
0.6225,0.0695801,
0.623,0.0975037,
0.6235,0.0735474,
0.624,0.0311279,
0.6245,0.0175476,
0.625,0.0158691,
0.6255,0.0158691,
0.626,0.0160217,
0.6265,0.0198364,
0.627,0.0549316,
0.6275,0.0982666,
0.628,0.128174,
0.6285,0.15213,
0.629,0.158997,
0.6295,0.136108,
0.63,0.0874329,
0.6305,0.0431824,
0.631,0.0189209,
0.6315,0.00610352,
0.632,0.00350952,
0.6325,0.0135803,
0.633,0.0250244,
0.6335,0.0228882,
0.634,0.0146484,
0.6345,0.0166321,
0.635,0.0218201,
0.6355,0.0143433,
0.636,0.0131226,
0.6365,0.0274658,
0.637,0.0331116,
0.6375,0.010376,
0.638,-0.0234985,
0.6385,-0.0395203,
0.639,-0.0369263,
0.6395,-0.0367737,
0.64,-0.0497437,
0.6405,-0.0604248,
0.641,-0.0508118,
0.6415,-0.0364685,
0.642,-0.0378418,
0.6425,-0.0465393,
0.643,-0.045166,
0.6435,-0.038147,
0.644,-0.0587463,
0.6445,-0.104065,
0.645,-0.137482,
0.6455,-0.134735,
0.646,-0.104523,
0.6465,-0.0749207,
0.647,-0.0476074,
0.6475,-0.0236511,
0.648,-0.0120544,
0.6485,-0.0128174,
0.649,-0.00930786,
0.6495,0.0132751,
0.65,0.0402832,
0.6505,0.0375366,
0.651,0.0274658,
0.6515,0.0601196,
0.652,0.147705,
0.6525,0.187683,
0.653,0.202332,
0.6535,0.255432,
0.654,0.274353,
0.6545,0.225983,
0.655,0.141144,
0.6555,0.0686646,
0.656,0.0259399,
0.6565,0.00717163,
0.657,-0.0109863,
0.6575,-0.0325012,
0.658,-0.0440979,
0.6585,-0.0492859,
0.659,-0.0480652,
0.6595,-0.0442505,
0.66,-0.0398254,
0.6605,-0.0404358,
0.661,-0.0450134,
0.6615,-0.0408936,
0.662,-0.022583,
0.6625,0.00213623,
0.663,0.018158,
0.6635,0.0227356,
0.664,0.0236511,
0.6645,0.0238037,
0.665,0.0234985,
0.6655,0.0238037,
0.666,0.0236511,
0.6665,0.0236511,
0.667,0.0230408,
0.6675,0.0163269,
0.668,0.00411987,
0.6685,-0.010376,
0.669,-0.0151062,
0.6695,-0.0161743,
0.67,-0.0204468,
0.6705,-0.0114441,
0.671,-0.00320435,
0.6715,-0.0108337,
0.672,-0.0205994,
0.6725,-0.0267029,
0.673,-0.0325012,
0.6735,-0.0379944,
0.674,-0.0421143,
0.6745,-0.0526428,
0.675,-0.065155,
0.6755,-0.065155,
0.676,-0.0549316,
0.6765,-0.0469971,
0.677,-0.0370789,
0.6775,-0.0163269,
0.678,-0.00289917,
0.6785,-0.0111389,
0.679,-0.0332642,
0.6795,-0.0434875,
0.68,-0.042572,
0.6805,-0.0421143,
0.681,-0.0421143,
0.6815,-0.0364685,
0.682,-0.0259399,
0.6825,-0.0215149,
0.683,-0.0230408,
0.6835,-0.0161743,
0.684,0.00366211,
0.6845,0.0167847,
0.685,0.0105286,
0.6855,-0.00686646,
0.686,-0.0183105,
0.6865,-0.0215149,
0.687,-0.0318909,
0.6875,-0.0518799,
0.688,-0.0637817,
0.6885,-0.0579834,
0.689,-0.0460815,
0.6895,-0.0393677,
0.69,-0.0198364,
0.6905,0.012207,
0.691,0.0257874,
0.6915,0.0172424,
0.692,0.00167847,
0.6925,-0.0109863,
0.693,-0.0204468,
0.6935,-0.032196,
0.694,-0.0384521,
0.6945,-0.0311279,
0.695,-0.0250244,
0.6955,-0.0219727,
0.696,-0.0102234,
0.6965,0.0117493,
0.697,0.0309753,
0.6975,0.0427246,
0.698,0.0424194,
0.6985,0.0315857,
0.699,0.032959,
0.6995,0.0436401,
0.7,0.037384,
0.7005,0.0218201,
0.701,0.0326538,
0.7015,0.0689697,
0.702,0.0856018,
0.7025,0.0750732,
0.703,0.0666809,
0.7035,0.067749,
0.704,0.0561523,
0.7045,0.0254822,
0.705,-0.00427246,
0.7055,-0.0126648,
0.706,-0.00320435,
0.7065,0.00259399,
0.707,-0.0100708,
0.7075,-0.0334167,
0.708,-0.0471497,
0.7085,-0.0480652,
0.709,-0.027771,
0.7095,0.0109863,
0.71,0.0265503,
0.7105,0.0126648,
0.711,0.00442505,
0.7115,0.0202942,
0.712,0.0294495,
0.7125,0.00823975,
0.713,-0.0227356,
0.7135,-0.0378418,
0.714,-0.0398254,
0.7145,-0.0331116,
0.715,-0.0241089,
0.7155,-0.0158691,
0.716,-0.00610352,
0.7165,0.00305176,
0.717,0.0109863,
0.7175,0.00442505,
0.718,-0.0157166,
0.7185,-0.032196,
0.719,-0.0323486,
0.7195,-0.0158691,
0.72,0.00198364,
0.7205,0.00457764,
0.721,-0.00167847,
0.7215,-0.0062561,
0.722,-0.00839233,
0.7225,-0.0134277,
0.723,-0.0205994,
0.7235,-0.0306702,
0.724,-0.0378418,
0.7245,-0.0289917,
0.725,-0.020752,
0.7255,-0.0160217,
0.726,-0.00808716,
0.7265,0.00457764,
0.727,0.00762939,
0.7275,-0.0012207,
0.728,0.00244141,
0.7285,0.0160217,
0.729,0.0218201,
0.7295,0.00869751,
0.73,0.00411987,
0.7305,0.0158691,
0.731,0.0230408,
0.7315,0.0291443,
0.732,0.0241089,
0.7325,0.00289917,
0.733,0.00167847,
0.7335,0.0180054,
0.734,0.0221252,
0.7345,0.0149536,
0.735,0.0146484,
0.7355,0.0227356,
0.736,0.0227356,
0.7365,0.0123596,
0.737,0.0247192,
0.7375,0.0765991,
0.738,0.129547,
0.7385,0.148926,
0.739,0.137482,
0.7395,0.111694,
0.74,0.0746155,
0.7405,0.0241089,
0.741,-0.0244141,
0.7415,-0.035553,
0.742,-0.00976563,
0.7425,0.00396729,
0.743,-0.0234985,
0.7435,-0.037384,
0.744,-0.0161743,
0.7445,0.00808716,
0.745,0.0160217,
0.7455,0.0109863,
0.746,0.0228882,
0.7465,0.0436401,
0.747,0.050354,
0.7475,0.0408936,
0.748,0.0149536,
0.7485,-0.0212097,
0.749,-0.0567627,
0.7495,-0.0767517,
0.75,-0.0823975,
0.7505,-0.0738525,
0.751,-0.0505066,
0.7515,-0.0241089,
0.752,-0.00808716,
0.7525,-0.0126648,
0.753,-0.0280762,
0.7535,-0.0256348,
0.754,0.0114441,
0.7545,0.0454712,
0.755,0.0463867,
0.7555,0.0363159,
0.756,0.0268555,
0.7565,0.00289917,
0.757,-0.0367737,
0.7575,-0.0675964,
0.758,-0.0721741,
0.7585,-0.0643921,
0.759,-0.059967,
0.7595,-0.0527954,
0.76,-0.0340271,
0.7605,0.000305176,
0.761,0.0370789,
0.7615,0.039978,
0.762,0.0108337,
0.7625,-0.0111389,
0.763,-0.00823975,
0.7635,0.0187683,
0.764,0.0434875,
0.7645,0.0465393,
0.765,0.0428772,
0.7655,0.040741,
0.766,0.0384521,
0.7665,0.0273132,
0.767,0.00793457,
0.7675,0.00244141,
0.768,0.00320435,
0.7685,-0.00961304,
0.769,-0.0140381,
0.7695,0.00640869,
0.77,0.0300598,
0.7705,0.0259399,
0.771,0.00198364,
0.7715,-0.0180054,
0.772,-0.0305176,
0.7725,-0.03479,
0.773,-0.0222778,
0.7735,0.00549316,
0.774,0.0244141,
0.7745,0.0202942,
0.775,0.0088501,
0.7755,0.010376,
0.776,0.00915527,
0.7765,0.00549316,
0.777,0.0157166,
0.7775,0.037384,
0.778,0.0372314,
0.7785,0.00701904,
0.779,-0.0224304,
0.7795,-0.035553,
0.78,-0.0325012,
0.7805,-0.0270081,
0.781,-0.0346375,
0.7815,-0.0540161,
0.782,-0.0767517,
0.7825,-0.0764465,
0.783,-0.055542,
0.7835,-0.0489807,
0.784,-0.0715637,
0.7845,-0.109863,
0.785,-0.130768,
0.7855,-0.119476,
0.786,-0.0776672,
0.7865,-0.0413513,
0.787,-0.0209045,
0.7875,-0.00213623,
0.788,0.017395,
0.7885,0.0250244,
0.789,0.0196838,
0.7895,0.0233459,
0.79,0.0419617,
0.7905,0.0509644,
0.791,0.0418091,
0.7915,0.0366211,
0.792,0.027771,
0.7925,0.0195313,
0.793,0.0123596,
0.7935,-0.00610352,
0.794,-0.0300598,
0.7945,-0.0341797,
0.795,-0.00762939,
0.7955,0.0224304,
0.796,0.0349426,
0.7965,0.0361633,
0.797,0.0343323,
0.7975,0.0302124,
0.798,0.0276184,
0.7985,0.0285339,
0.799,0.0340271,
0.7995,0.0280762,
0.8,0.010376,
0.8005,-0.00518799,
0.801,-0.0183105,
0.8015,-0.0292969,
0.802,-0.0283813,
0.8025,-0.015564,
0.803,-0.00732422,
0.8035,0,
0.804,0.00198364,
0.8045,0.00335693,
0.805,0.00213623,
0.8055,-0.0190735,
0.806,-0.0473022,
0.8065,-0.0535583,
0.807,-0.0311279,
0.8075,-0.0112915,
0.808,-0.00793457,
0.8085,-0.0222778,
0.809,-0.0361633,
0.8095,-0.0302124,
0.81,-0.0245667,
0.8105,-0.0308228,
0.811,-0.0387573,
0.8115,-0.0410461,
0.812,-0.0366211,
0.8125,-0.0410461,
0.813,-0.0566101,
0.8135,-0.0663757,
0.814,-0.0730896,
0.8145,-0.0718689,
0.815,-0.0482178,
0.8155,-0.0317383,
0.816,-0.0428772,
0.8165,-0.0634766,
0.817,-0.0714111,
0.8175,-0.0639343,
0.818,-0.0341797,
0.8185,0.0109863,
0.819,0.0434875,
0.8195,0.0483704,
0.82,0.0419617,
0.8205,0.0370789,
0.821,0.0448608,
0.8215,0.0643921,
0.822,0.0741577,
0.8225,0.0646973,
0.823,0.0570679,
0.8235,0.0508118,
0.824,0.0375366,
0.8245,0.0262451,
0.825,0.0231934,
0.8255,0.0195313,
0.826,0.00900269,
0.8265,0.000762939,
0.827,0.0143433,
0.8275,0.0343323,
0.828,0.00686646,
0.8285,-0.0387573,
0.829,-0.0582886,
0.8295,-0.0672913,
0.83,-0.0772095,
0.8305,-0.0665283,
0.831,-0.0135803,
0.8315,0.0328064,
0.832,0.0563049,
0.8325,0.0592041,
0.833,0.0416565,
0.8335,0.0228882,
0.834,0.0189209,
0.8345,0.0263977,
0.835,0.0463867,
0.8355,0.0819397,
0.836,0.101929,
0.8365,0.0775146,
0.837,0.0196838,
0.8375,-0.0422668,
0.838,-0.0810242,
0.8385,-0.0727844,
0.839,-0.0231934,
0.8395,0.0343323,
0.84,0.0770569,
0.8405,0.104675,
0.841,0.0909424,
0.8415,0.032959,
0.842,-0.0325012,
0.8425,-0.0778198,
0.843,-0.0906372,
0.8435,-0.0796509,
0.844,-0.0614929,
0.8445,-0.0587463,
0.845,-0.090332,
0.8455,-0.128784,
0.846,-0.136414,
0.8465,-0.1091,
0.847,-0.0657654,
0.8475,-0.0268555,
0.848,0.0184631,
0.8485,0.0788879,
0.849,0.13031,
0.8495,0.142517,
0.85,0.111542,
0.8505,0.0588989,
0.851,0.0170898,
0.8515,-0.00701904,
0.852,-0.0152588,
0.8525,0.00137329,
0.853,0.0151062,
0.8535,0.00411987,
0.854,-0.0111389,
0.8545,-0.00427246,
0.855,0.0210571,
0.8555,0.0601196,
0.856,0.0924683,
0.8565,0.100708,
0.857,0.0946045,
0.8575,0.0808716,
0.858,0.0558472,
0.8585,0.0311279,
0.859,0.012207,
0.8595,0.00961304,
0.86,0.0367737,
0.8605,0.0648499,
0.861,0.0680542,
0.8615,0.0682068,
0.862,0.0749207,
0.8625,0.0569153,
0.863,0.00244141,
0.8635,-0.0531006,
0.864,-0.0790405,
0.8645,-0.0715637,
0.865,-0.0482178,
0.8655,-0.0270081,
0.866,-0.025177,
0.8665,-0.0471497,
0.867,-0.0790405,
0.8675,-0.0968933,
0.868,-0.0950623,
0.8685,-0.0663757,
0.869,-0.0360107,
0.8695,-0.0218201,
0.87,-0.0323486,
0.8705,-0.0744629,
0.871,-0.117188,
0.8715,-0.142517,
0.872,-0.154114,
0.8725,-0.151367,
0.873,-0.150757,
0.8735,-0.156708,
0.874,-0.150452,
0.8745,-0.134125,
0.875,-0.111542,
0.8755,-0.0679016,
0.876,-0.00564575,
0.8765,0.0631714,
0.877,0.140381,
0.8775,0.19928,
0.878,0.215454,
0.8785,0.20401,
0.879,0.184937,
0.8795,0.148926,
0.88,0.0891113,
0.8805,0.0375366,
0.881,0.0158691,
0.8815,0.00442505,
0.882,-0.00976563,
0.8825,-0.0358582,
0.883,-0.0457764,
0.8835,-0.0186157,
0.884,0.022583,
0.8845,0.0559998,
0.885,0.0939941,
0.8855,0.126953,
0.886,0.13031,
0.8865,0.121002,
0.887,0.115356,
0.8875,0.0946045,
0.888,0.063324,
0.8885,0.04776,
0.889,0.0572205,
0.8895,0.0518799,
0.89,0.0320435,
0.8905,0.0274658,
0.891,0.0256348,
0.8915,-0.000762939,
0.892,-0.0650024,
0.8925,-0.145721,
0.893,-0.195465,
0.8935,-0.20752,
0.894,-0.190887,
0.8945,-0.153656,
0.895,-0.128937,
0.8955,-0.116272,
0.896,-0.0872803,
0.8965,-0.0131226,
0.897,0.0814819,
0.8975,0.13092,
0.898,0.147858,
0.8985,0.166016,
0.899,0.157776,
0.8995,0.10437,
0.9,0.0245667,
0.9005,-0.0564575,
0.901,-0.101013,
0.9015,-0.114594,
0.902,-0.121307,
0.9025,-0.110931,
0.903,-0.083313,
0.9035,-0.0779724,
0.904,-0.111389,
0.9045,-0.149078,
0.905,-0.145569,
0.9055,-0.09552,
0.906,-0.0396729,
0.9065,-0.00610352,
0.907,0.0152588,
0.9075,0.0500488,
0.908,0.0863647,
0.9085,0.0772095,
0.909,0.0363159,
0.9095,0.0125122,
0.91,-0.00213623,
0.9105,-0.0213623,
0.911,-0.0492859,
0.9115,-0.0668335,
0.912,-0.068512,
0.9125,-0.0674438,
0.913,-0.0845337,
0.9135,-0.112915,
0.914,-0.119171,
0.9145,-0.0935364,
0.915,-0.0564575,
0.9155,-0.0358582,
0.916,-0.0448608,
0.9165,-0.0567627,
0.917,-0.045929,
0.9175,-0.0117493,
0.918,0.0549316,
0.9185,0.177612,
0.919,0.314636,
0.9195,0.356903,
0.92,0.278473,
0.9205,0.158081,
0.921,0.0679016,
0.9215,0.025177,
0.922,-0.0123596,
0.9225,-0.063324,
0.923,-0.100861,
0.9235,-0.112305,
0.924,-0.0993347,
0.9245,-0.0578308,
0.925,-0.025177,
0.9255,-0.0187683,
0.926,-0.0038147,
0.9265,0.00274658,
0.927,-0.0386047,
0.9275,-0.104065,
0.928,-0.14328,
0.9285,-0.13382,
0.929,-0.0770569,
0.9295,-0.0102234,
0.93,0.045166,
0.9305,0.0971985,
0.931,0.116882,
0.9315,0.0901794,
0.932,0.0421143,
0.9325,0.0338745,
0.933,0.0785828,
0.9335,0.120239,
0.934,0.133972,
0.9345,0.151367,
0.935,0.16922,
0.9355,0.133514,
0.936,0.0584412,
0.9365,-0.000305176,
0.937,-0.0119019,
0.9375,-0.00305176,
0.938,-0.0163269,
0.9385,-0.0610352,
0.939,-0.116425,
0.9395,-0.137482,
0.94,-0.107422,
0.9405,-0.0617981,
0.941,-0.025177,
0.9415,0.00259399,
0.942,0.0108337,
0.9425,-0.0131226,
0.943,-0.0447083,
0.9435,-0.0588989,
0.944,-0.0531006,
0.9445,-0.0527954,
0.945,-0.0733948,
0.9455,-0.0865173,
0.946,-0.0894165,
0.9465,-0.102539,
0.947,-0.0895691,
0.9475,-0.0442505,
0.948,-0.012207,
0.9485,-0.00991821,
0.949,0.00396729,
0.9495,0.0428772,
0.95,0.0743103,
0.9505,0.0750732,
0.951,0.0621033,
0.9515,0.057373,
0.952,0.0796509,
0.9525,0.105743,
0.953,0.120392,
0.9535,0.108643,
0.954,0.0738525,
0.9545,0.0575256,
0.955,0.0509644,
0.9555,0.0192261,
0.956,-0.0138855,
0.9565,-0.00732422,
0.957,0.0308228,
0.9575,0.0413513,
0.958,-0.00610352,
0.9585,-0.0636292,
0.959,-0.080719,
0.9595,-0.0584412,
0.96,-0.018158,
0.9605,0.0187683,
0.961,0.0271606,
0.9615,0.0187683,
0.962,0.0233459,
0.9625,0.0350952,
0.963,0.0296021,
0.9635,0.000152588,
0.964,-0.0382996,
0.9645,-0.0776672,
0.965,-0.102844,
0.9655,-0.0912476,
0.966,-0.0508118,
0.9665,-0.0210571,
0.967,-0.017395,
0.9675,-0.0119019,
0.968,0,
0.9685,0.0163269,
0.969,0.0309753,
0.9695,0.0289917,
0.97,0.0248718,
0.9705,0.0166321,
0.971,0.00259399,
0.9715,-0.00900269,
0.972,-0.0204468,
0.9725,-0.0257874,
0.973,-0.0360107,
0.9735,-0.0375366,
0.974,-0.0326538,
0.9745,-0.0297546,
0.975,-0.0454712,
0.9755,-0.0558472,
0.976,-0.0315857,
0.9765,0.00991821,
0.977,0.0431824,
0.9775,0.0506592,
0.978,0.0384521,
0.9785,0.0254822,
0.979,0.0134277,
0.9795,0.00411987,
0.98,-0.00915527,
0.9805,-0.0300598,
0.981,-0.0253296,
0.9815,0.0135803,
0.982,0.043335,
0.9825,0.042572,
0.983,0.0344849,
0.9835,0.0238037,
0.984,-0.00976563,
0.9845,-0.0578308,
0.985,-0.0897217,
0.9855,-0.0765991,
0.986,-0.0442505,
0.9865,-0.0544739,
0.987,-0.0994873,
0.9875,-0.127411,
0.988,-0.115662,
0.9885,-0.083313,
0.989,-0.0396729,
0.9895,-0.0102234,
0.99,-0.0038147,
0.9905,0.00656128,
0.991,0.0291443,
0.9915,0.057373,
0.992,0.0866699,
0.9925,0.0881958,
0.993,0.0442505,
0.9935,-0.00366211,
0.994,-0.00900269,
0.9945,0.0402832,
0.995,0.0883484,
0.9955,0.0666809,
0.996,0.0190735,
0.9965,0.0128174,
0.997,0.0262451,
0.9975,0.00320435,
0.998,-0.0230408,
0.9985,-0.00762939,
0.999,0.0128174,
0.9995,0.00991821,
1,-0.00442505,
1.0005,-0.00640869,
1.001,-0.00686646,
1.0015,-0.0378418,
1.002,-0.0796509,
1.0025,-0.0874329,
1.003,-0.0704956,
1.0035,-0.062561,
1.004,-0.0688171,
1.0045,-0.0692749,
1.005,-0.0602722,
1.0055,-0.0349426,
1.006,0.00335693,
1.0065,0.0247192,
1.007,0.0216675,
1.0075,0.0222778,
1.008,0.020752,
1.0085,-0.00305176,
1.009,-0.0524902,
1.0095,-0.110626,
1.01,-0.133057,
1.0105,-0.111694,
1.011,-0.0836182,
1.0115,-0.0656128,
1.012,-0.0584412,
1.0125,-0.0567627,
1.013,-0.0657654,
1.0135,-0.0367737,
1.014,0.0799561,
1.0145,0.241852,
1.015,0.35553,
1.0155,0.356903,
1.016,0.249023,
1.0165,0.121613,
1.017,0.0428772,
1.0175,0.00793457,
1.018,-0.0236511,
1.0185,-0.0804138,
1.019,-0.128479,
1.0195,-0.138092,
1.02,-0.133362,
1.0205,-0.140076,
1.021,-0.140839,
1.0215,-0.130615,
1.022,-0.129395,
1.0225,-0.116425,
1.023,-0.0828552,
1.0235,-0.0436401,
1.024,-0.012207,
1.0245,0.0259399,
1.025,0.103149,
1.0255,0.193787,
1.026,0.226288,
1.0265,0.168762,
1.027,0.0895691,
1.0275,0.105896,
1.028,0.180359,
1.0285,0.174866,
1.029,0.103607,
1.0295,0.0354004,
1.03,0.00793457,
1.0305,0.00976563,
1.031,0.0175476,
1.0315,0.010376,
1.032,-0.00396729,
1.0325,0.000152588,
1.033,0.0212097,
1.0335,0.0436401,
1.034,0.0424194,
1.0345,0.0050354,
1.035,-0.0227356,
1.0355,-0.0218201,
1.036,-0.0286865,
1.0365,-0.0361633,
1.037,-0.0384521,
1.0375,-0.0428772,
1.038,-0.0299072,
1.0385,-0.00366211,
1.039,-0.00289917,
1.0395,-0.0343323,
1.04,-0.0424194,
1.0405,-0.0170898,
1.041,-0.00228882,
1.0415,-0.00915527,
1.042,-0.0132751,
1.0425,-0.00991821,
1.043,-0.0125122,
1.0435,0.00320435,
1.044,0.0436401,
1.0445,0.0640869,
1.045,0.0602722,
1.0455,0.0579834,
1.046,0.043335,
1.0465,0.00213623,
1.047,-0.0532532,
1.0475,-0.0830078,
1.048,-0.0872803,
1.0485,-0.0932312,
1.049,-0.0830078,
1.0495,-0.0448608,
1.05,0.0100708,
1.0505,0.0619507,
1.051,0.0856018,
1.0515,0.0837708,
1.052,0.0933838,
1.0525,0.114441,
1.053,0.10437,
1.0535,0.0610352,
1.054,0.00610352,
1.0545,-0.0387573,
1.055,-0.0558472,
1.0555,-0.0312805,
1.056,0.0134277,
1.0565,0.0447083,
1.057,0.0512695,
1.0575,0.0440979,
1.058,0.0479126,
1.0585,0.0686646,
1.059,0.0794983,
1.0595,0.0471497,
1.06,-0.00717163,
1.0605,-0.037384,
1.061,-0.0201416,
1.0615,0.0175476,
1.062,0.0416565,
1.0625,0.0354004,
1.063,-0.00518799,
1.0635,-0.0794983,
1.064,-0.162048,
1.0645,-0.222931,
1.065,-0.223389,
1.0655,-0.144806,
1.066,-0.0413513,
1.0665,0.0163269,
1.067,0.00350952,
1.0675,-0.0534058,
1.068,-0.0964355,
1.0685,-0.0823975,
1.069,-0.0421143,
1.0695,-0.038147,
1.07,-0.0662231,
1.0705,-0.102081,
1.071,-0.119171,
1.0715,-0.112152,
1.072,-0.0793457,
1.0725,-0.0186157,
1.073,0.0401306,
1.0735,0.0730896,
1.074,0.0978088,
1.0745,0.139618,
1.075,0.156403,
1.0755,0.108032,
1.076,0.042572,
1.0765,0.00534058,
1.077,-0.0114441,
1.0775,-0.00473022,
1.078,0.0312805,
1.0785,0.045166,
1.079,0.0213623,
1.0795,-0.00930786,
1.08,-0.0134277,
1.0805,-0.00350952,
1.081,-0.00518799,
1.0815,-0.0187683,
1.082,-0.0210571,
1.0825,-0.00564575,
1.083,0.00259399,
1.0835,0.0038147,
1.084,-0.00228882,
1.0845,-0.0572205,
1.085,-0.102539,
1.0855,-0.130615,
1.086,-0.140991,
1.0865,-0.10849,
1.087,-0.04776,
1.0875,-0.0283813,
1.088,-0.040741,
1.0885,-0.0369263,
1.089,-0.00732422,
1.0895,-0.000915527,
1.09,-0.0012207,
1.0905,0.0537109,
1.091,0.14679,
1.0915,0.220337,
1.092,0.238037,
1.0925,0.198669,
1.093,0.12619,
1.0935,0.045929,
1.094,-0.0126648,
1.0945,-0.0346375,
1.095,-0.0233459,
1.0955,0.00640869,
1.096,0.0308228,
1.0965,0.0105286,
1.097,-0.0624084,
1.0975,-0.111542,
1.098,-0.080719,
1.0985,-0.00411987,
1.099,0.0445557,
1.0995,0.0405884,
1.1,0.012207,
1.1005,-0.0160217,
1.101,-0.0308228,
1.1015,-0.038147,
1.102,-0.0439453,
1.1025,-0.0427246,
1.103,-0.0335693,
1.1035,-0.0212097,
1.104,-0.0268555,
1.1045,-0.0405884,
1.105,-0.0491333,
1.1055,-0.0502014,
1.106,-0.0308228,
1.1065,0.0254822,
1.107,0.0862122,
1.1075,0.0912476,
1.108,0.0648499,
1.1085,0.0624084,
1.109,0.0758362,
1.1095,0.0646973,
1.11,0.0230408,
1.1105,-0.0202942,
1.111,-0.0619507,
1.1115,-0.0949097,
1.112,-0.0956726,
1.1125,-0.0843811,
1.113,-0.0860596,
1.1135,-0.102081,
1.114,-0.144043,
1.1145,-0.211639,
1.115,-0.251007,
1.1155,-0.215149,
1.116,-0.104065,
1.1165,0.0491333,
1.117,0.181427,
1.1175,0.274506,
1.118,0.327301,
1.1185,0.315247,
1.119,0.25528,
1.1195,0.176544,
1.12,0.098877,
1.1205,0.0515747,
1.121,0.0440979,
1.1215,0.0479126,
1.122,0.0520325,
1.1225,0.0628662,
1.123,0.0718689,
1.1235,0.0709534,
1.124,0.0657654,
1.1245,0.0778198,
1.125,0.0753784,
1.1255,0.0334167,
1.126,-0.0267029,
1.1265,-0.0691223,
1.127,-0.0746155,
1.1275,-0.0344849,
1.128,0.0114441,
1.1285,-0.00396729,
1.129,-0.0672913,
1.1295,-0.113831,
1.13,-0.113373,
1.1305,-0.109711,
1.131,-0.136566,
1.1315,-0.167694,
1.132,-0.174255,
1.1325,-0.139313,
1.133,-0.0672913,
1.1335,0.0183105,
1.134,0.0862122,
1.1345,0.135345,
1.135,0.146179,
1.1355,0.0975037,
1.136,0.0393677,
1.1365,0.0300598,
1.137,0.045929,
1.1375,0.0431824,
1.138,-0.00549316,
1.1385,-0.057373,
1.139,-0.0639343,
1.1395,-0.0531006,
1.14,-0.0590515,
1.1405,-0.0680542,
1.141,-0.0216675,
1.1415,0.0671387,
1.142,0.101318,
1.1425,0.0648499,
1.143,0.0234985,
1.1435,0.0012207,
1.144,-0.00915527,
1.1445,-0.0196838,
1.145,-0.0343323,
1.1455,-0.0495911,
1.146,-0.0630188,
1.1465,-0.0672913,
1.147,-0.0622559,
1.1475,-0.0679016,
1.148,-0.0714111,
1.1485,-0.0279236,
1.149,0.0178528,
1.1495,0.0195313,
1.15,-0.000762939,
1.1505,-0.0183105,
1.151,-0.0125122,
1.1515,0.00167847,
1.152,-0.00534058,
1.1525,-0.0317383,
1.153,-0.0471497,
1.1535,-0.0292969,
1.154,0.00411987,
1.1545,0.0175476,
1.155,0.0111389,
1.1555,-0.0210571,
1.156,-0.0413513,
1.1565,-0.0163269,
1.157,0.020752,
1.1575,0.0401306,
1.158,0.032959,
1.1585,0.0152588,
1.159,0.00579834,
1.1595,0.00595093,
1.16,0.000305176,
1.1605,-0.0164795,
1.161,-0.0254822,
1.1615,-0.0186157,
1.162,-0.0157166,
1.1625,-0.0267029,
1.163,-0.0390625,
1.1635,-0.0408936,
1.164,-0.0289917,
1.1645,-0.0169373,
1.165,-0.0050354,
1.1655,0.0157166,
1.166,0.03479,
1.1665,0.0164795,
1.167,-0.0256348,
1.1675,-0.0582886,
1.168,-0.0813293,
1.1685,-0.0976563,
1.169,-0.107117,
1.1695,-0.119934,
1.17,-0.114594,
1.1705,-0.0947571,
1.171,-0.100098,
1.1715,-0.127716,
1.172,-0.114288,
1.1725,-0.0509644,
1.173,-0.0332642,
1.1735,-0.0421143,
1.174,-0.00717163,
1.1745,0.0457764,
1.175,0.0674438,
1.1755,0.0732422,
1.176,0.0849915,
1.1765,0.0987244,
1.177,0.113983,
1.1775,0.133667,
1.178,0.155182,
1.1785,0.159912,
1.179,0.13031,
1.1795,0.0646973,
1.18,-0.01297,
1.1805,-0.0578308,
1.181,-0.0482178,
1.1815,-0.00946045,
1.182,0.0341797,
1.1825,0.0579834,
1.183,0.0726318,
1.1835,0.109863,
1.184,0.145569,
1.1845,0.149689,
1.185,0.111694,
1.1855,0.0434875,
1.186,-0.0100708,
1.1865,-0.0233459,
1.187,-0.00488281,
1.1875,0.0117493,
1.188,0.018158,
1.1885,0.0222778,
1.189,0.0106812,
1.1895,-0.0231934,
1.19,-0.0364685,
1.1905,-0.0216675,
1.191,-0.0169373,
1.1915,-0.0227356,
1.192,-0.0204468,
1.1925,-0.019989,
1.193,-0.0212097,
1.1935,-0.0292969,
1.194,-0.038147,
1.1945,-0.0141907,
1.195,0.0163269,
1.1955,-0.00183105,
1.196,-0.0619507,
1.1965,-0.102539,
1.197,-0.096283,
1.1975,-0.0558472,
1.198,-0.0308228,
1.1985,-0.0402832,
1.199,-0.0598145,
1.1995,-0.0648499,
1.2,-0.03479,
1.2005,0.0602722,
1.201,0.196381,
1.2015,0.272369,
1.202,0.242004,
1.2025,0.151367,
1.203,0.0701904,
1.2035,0.0315857,
1.204,0.00854492,
1.2045,-0.030365,
1.205,-0.0621033,
1.2055,-0.0653076,
1.206,-0.0453186,
1.2065,-0.0410461,
1.207,-0.0621033,
1.2075,-0.090332,
1.208,-0.101929,
1.2085,-0.112305,
1.209,-0.134735,
1.2095,-0.150146,
1.21,-0.147858,
1.2105,-0.140076,
1.211,-0.12558,
1.2115,-0.0920105,
1.212,-0.0524902,
1.2125,-0.03479,
1.213,-0.0379944,
1.2135,-0.00717163,
1.214,0.0843811,
1.2145,0.166168,
1.215,0.177002,
1.2155,0.144348,
1.216,0.115814,
1.2165,0.105438,
1.217,0.0978088,
1.2175,0.0709534,
1.218,0.0398254,
1.2185,0.0222778,
1.219,0.0283813,
1.2195,0.0259399,
1.22,-0.00595093,
1.2205,-0.0434875,
1.221,-0.0752258,
1.2215,-0.0701904,
1.222,-0.032959,
1.2225,0.00488281,
1.223,0.0169373,
1.2235,0.00686646,
1.224,0.00640869,
1.2245,0.052948,
1.225,0.119934,
1.2255,0.140991,
1.226,0.0950623,
1.2265,0.0514221,
1.227,0.0595093,
1.2275,0.0979614,
1.228,0.0996399,
1.2285,0.0610352,
1.229,0.027771,
1.2295,0.00656128,
1.23,-0.000610352,
1.2305,0.0189209,
1.231,0.0317383,
1.2315,0.00839233,
1.232,-0.0415039,
1.2325,-0.0997925,
1.233,-0.128632,
1.2335,-0.110168,
1.234,-0.0810242,
1.2345,-0.0793457,
1.235,-0.0746155,
1.2355,-0.0460815,
1.236,-0.0193787,
1.2365,-0.00747681,
1.237,-0.0109863,
1.2375,-0.0210571,
1.238,-0.0312805,
1.2385,-0.0393677,
1.239,-0.0413513,
1.2395,-0.0283813,
1.24,-0.0338745,
1.2405,-0.0765991,
1.241,-0.119476,
1.2415,-0.124054,
1.242,-0.0837708,
1.2425,-0.0354004,
1.243,-0.00427246,
1.2435,0.00427246,
1.244,-0.0166321,
1.2445,-0.0639343,
1.245,-0.0964355,
1.2455,-0.078125,
1.246,-0.0308228,
1.2465,0.0114441,
1.247,0.0332642,
1.2475,0.0231934,
1.248,-0.00610352,
1.2485,-0.0398254,
1.249,-0.0674438,
1.2495,-0.0741577,
1.25,-0.0382996,
1.2505,-0.018158,
1.251,-0.0639343,
1.2515,-0.0872803,
1.252,-0.0157166,
1.2525,0.0794983,
1.253,0.123291,
1.2535,0.118713,
1.254,0.120087,
1.2545,0.140991,
1.255,0.134735,
1.2555,0.0836182,
1.256,0.0166321,
1.2565,-0.043335,
1.257,-0.0671387,
1.2575,-0.0666809,
1.258,-0.0708008,
1.2585,-0.0553894,
1.259,-0.0151062,
1.2595,0.00442505,
1.26,0.00396729,
1.2605,0.025177,
1.261,0.0616455,
1.2615,0.0920105,
1.262,0.112915,
1.2625,0.141296,
1.263,0.162506,
1.2635,0.117798,
1.264,0.0280762,
1.2645,-0.0221252,
1.265,-0.015564,
1.2655,0.0105286,
1.266,0.0267029,
1.2665,0.0395203,
1.267,0.0509644,
1.2675,0.0354004,
1.268,0.00137329,
1.2685,-0.0418091,
1.269,-0.0463867,
1.2695,-0.0100708,
1.27,0.0242615,
1.2705,0.0389099,
1.271,0.0250244,
1.2715,-0.0140381,
1.272,-0.0535583,
1.2725,-0.0642395,
1.273,-0.045166,
1.2735,-0.0239563,
1.274,-0.0213623,
1.2745,-0.00976563,
1.275,0.00839233,
1.2755,-0.00656128,
1.276,-0.0704956,
1.2765,-0.139008,
1.277,-0.177155,
1.2775,-0.190277,
1.278,-0.18692,
1.2785,-0.164185,
1.279,-0.139618,
1.2795,-0.134888,
1.28,-0.145569,
1.2805,-0.131378,
1.281,-0.0558472,
1.2815,0.0872803,
1.282,0.263519,
1.2825,0.366974,
1.283,0.318909,
1.2835,0.163879,
1.284,0.0233459,
1.2845,-0.0570679,
1.285,-0.0872803,
1.2855,-0.101318,
1.286,-0.125885,
1.2865,-0.129395,
1.287,-0.0866699,
1.2875,-0.0260925,
1.288,0.01297,
1.2885,0.0396729,
1.289,0.0646973,
1.2895,0.0775146,
1.29,0.0816345,
1.2905,0.103607,
1.291,0.144958,
1.2915,0.157623,
1.292,0.110474,
1.2925,0.0419617,
1.293,0.00640869,
1.2935,0.0141907,
1.294,0.0326538,
1.2945,0.0222778,
1.295,-0.00152588,
1.2955,-0.0158691,
1.296,-0.0421143,
1.2965,-0.0952148,
1.297,-0.145416,
1.2975,-0.160217,
1.298,-0.137177,
1.2985,-0.102386,
1.299,-0.0848389,
1.2995,-0.0840759,
1.3,-0.0949097,
1.3005,-0.0830078,
1.301,-0.00961304,
1.3015,0.092926,
1.302,0.171051,
1.3025,0.222473,
1.303,0.239868,
1.3035,0.189362,
1.304,0.0854492,
1.3045,0.00839233,
1.305,-0.0126648,
1.3055,-0.019989,
1.306,-0.0454712,
1.3065,-0.0688171,
1.307,-0.0514221,
1.3075,0.0112915,
1.308,0.0559998,
1.3085,0.0363159,
1.309,-0.0415039,
1.3095,-0.0926208,
1.31,-0.0956726,
1.3105,-0.0999451,
1.311,-0.109711,
1.3115,-0.112457,
1.312,-0.122223,
1.3125,-0.127258,
1.313,-0.058136,
1.3135,0.0624084,
1.314,0.149536,
1.3145,0.177307,
1.315,0.124359,
1.3155,0.0271606,
1.316,-0.00930786,
1.3165,0.0268555,
1.317,0.0559998,
1.3175,0.0402832,
1.318,-0.00671387,
1.3185,-0.0376892,
1.319,-0.0436401,
1.3195,-0.0450134,
1.32,-0.0465393,
1.3205,-0.0379944,
1.321,-0.0294495,
1.3215,-0.0317383,
1.322,-0.0434875,
1.3225,-0.0617981,
1.323,-0.0784302,
1.3235,-0.08255,
1.324,-0.0889587,
1.3245,-0.0950623,
1.325,-0.0819397,
1.3255,-0.0579834,
1.326,-0.038147,
1.3265,-0.0160217,
1.327,0.0312805,
1.3275,0.0820923,
1.328,0.104065,
1.3285,0.101013,
1.329,0.0837708,
1.3295,0.0761414,
1.33,0.098877,
1.3305,0.132294,
1.331,0.120544,
1.3315,0.0550842,
1.332,-0.0215149,
1.3325,-0.0759888,
1.333,-0.083313,
1.3335,-0.0473022,
1.334,0.0114441,
1.3345,0.0671387,
1.335,0.0822449,
1.3355,0.0384521,
1.336,-0.0262451,
1.3365,-0.0682068,
1.337,-0.0682068,
1.3375,-0.0422668,
1.338,-0.0288391,
1.3385,-0.0360107,
1.339,-0.0404358,
1.3395,-0.0378418,
1.34,-0.0421143,
1.3405,-0.0531006,
1.341,-0.0434875,
1.3415,-0.0218201,
1.342,-0.0239563,
1.3425,-0.057373,
1.343,-0.0819397,
1.3435,-0.0654602,
1.344,-0.0331116,
1.3445,-0.00900269,
1.345,0.0157166,
1.3455,0.040741,
1.346,0.0312805,
1.3465,-0.0361633,
1.347,-0.10376,
1.3475,-0.12146,
1.348,-0.113678,
1.3485,-0.102386,
1.349,-0.0875854,
1.3495,-0.045929,
1.35,0.0265503,
1.3505,0.0546265,
1.351,0.039978,
1.3515,0.0616455,
1.352,0.102234,
1.3525,0.105286,
1.353,0.0900269,
1.3535,0.11261,
1.354,0.152435,
1.3545,0.158844,
1.355,0.149536,
1.3555,0.146484,
1.356,0.148621,
1.3565,0.124817,
1.357,0.0804138,
1.3575,0.0494385,
1.358,0.0274658,
1.3585,0.00595093,
1.359,0.0012207,
1.3595,0.0205994,
1.36,0.0259399,
1.3605,0.0012207,
1.361,-0.0180054,
1.3615,-0.0244141,
1.362,-0.0494385,
1.3625,-0.0802612,
1.363,-0.0881958,
1.3635,-0.0747681,
1.364,-0.0579834,
1.3645,-0.0299072,
1.365,0.00778198,
1.3655,0.0183105,
1.366,-0.0157166,
1.3665,-0.0578308,
1.367,-0.078125,
1.3675,-0.0836182,
1.368,-0.0881958,
1.3685,-0.110321,
1.369,-0.131226,
1.3695,-0.121918,
1.37,-0.0787354,
1.3705,-0.0311279,
1.371,-0.00106812,
1.3715,0.0590515,
1.372,0.1828,
1.3725,0.301056,
1.373,0.310669,
1.3735,0.209808,
1.374,0.0813293,
1.3745,-0.00610352,
1.375,-0.0537109,
1.3755,-0.0773621,
1.376,-0.0848389,
1.3765,-0.070343,
1.377,-0.0334167,
1.3775,-0.00106812,
1.378,-0.0224304,
1.3785,-0.085144,
1.379,-0.139465,
1.3795,-0.171661,
1.38,-0.202026,
1.3805,-0.234375,
1.381,-0.228729,
1.3815,-0.184479,
1.382,-0.15152,
1.3825,-0.157318,
1.383,-0.141907,
1.3835,-0.0169373,
1.384,0.196838,
1.3845,0.343323,
1.385,0.34256,
1.3855,0.274963,
1.386,0.209656,
1.3865,0.153961,
1.387,0.104828,
1.3875,0.0579834,
1.388,0.0254822,
1.3885,0.0189209,
1.389,0.0257874,
1.3895,0.0256348,
1.39,0.0144958,
1.3905,-0.00701904,
1.391,-0.0180054,
1.3915,-0.0138855,
1.392,-0.0233459,
1.3925,-0.0582886,
1.393,-0.0660706,
1.3935,-0.0317383,
1.394,0.00701904,
1.3945,0.0140381,
1.395,-0.00244141,
1.3955,-0.0151062,
1.396,-0.030365,
1.3965,-0.0610352,
1.397,-0.0756836,
1.3975,-0.0434875,
1.398,0.01297,
1.3985,0.0369263,
1.399,-0.00167847,
1.3995,-0.0445557,
1.4,-0.0566101,
1.4005,-0.0469971,
1.401,-0.0286865,
1.4015,-0.0218201,
1.402,-0.0604248,
1.4025,-0.117188,
1.403,-0.147705,
1.4035,-0.119934,
1.404,-0.0579834,
1.4045,-0.0190735,
1.405,0.00976563,
1.4055,0.0447083,
1.406,0.0686646,
1.4065,0.0482178,
1.407,-0.0270081,
1.4075,-0.120087,
1.408,-0.17395,
1.4085,-0.178223,
1.409,-0.133362,
1.4095,-0.0645447,
1.41,-0.00915527,
1.4105,0.0479126,
1.411,0.130768,
1.4115,0.188599,
1.412,0.221252,
1.4125,0.300903,
1.413,0.399628,
1.4135,0.420685,
1.414,0.346832,
1.4145,0.215302,
1.415,0.0881958,
1.4155,0.0248718,
1.416,0.0114441,
1.4165,0.0012207,
1.417,-0.0212097,
1.4175,-0.0561523,
1.418,-0.0813293,
1.4185,-0.0857544,
1.419,-0.0776672,
1.4195,-0.0691223,
1.42,-0.0689697,
1.4205,-0.0726318,
1.421,-0.0769043,
1.4215,-0.0788879,
1.422,-0.0933838,
1.4225,-0.113678,
1.423,-0.111237,
1.4235,-0.0878906,
1.424,-0.0796509,
1.4245,-0.0715637,
1.425,-0.0370789,
1.4255,-0.00823975,
1.426,-0.01297,
1.4265,-0.0274658,
1.427,-0.0178528,
1.4275,-0.00137329,
1.428,-0.0178528,
1.4285,-0.0630188,
1.429,-0.083313,
1.4295,-0.0511169,
1.43,-0.0308228,
1.4305,-0.0572205,
1.431,-0.0953674,
1.4315,-0.124817,
1.432,-0.152283,
1.4325,-0.149689,
1.433,-0.126495,
1.4335,-0.114899,
1.434,-0.102692,
1.4345,-0.0765991,
1.435,-0.0332642,
1.4355,-0.0274658,
1.436,-0.0868225,
1.4365,-0.138702,
1.437,-0.144501,
1.4375,-0.10437,
1.438,-0.0361633,
1.4385,0.0444031,
1.439,0.120239,
1.4395,0.198822,
1.44,0.325623,
1.4405,0.471954,
1.441,0.511932,
1.4415,0.413055,
1.442,0.287323,
1.4425,0.176697,
1.443,0.0784302,
1.4435,0.000610352,
1.444,-0.0601196,
1.4445,-0.0985718,
1.445,-0.10498,
1.4455,-0.0941467,
1.446,-0.0759888,
1.4465,-0.0566101,
1.447,-0.0260925,
1.4475,0.00640869,
1.448,-0.00686646,
1.4485,-0.0457764,
1.449,-0.0518799,
1.4495,-0.0338745,
1.45,-0.0117493,
1.4505,-0.00869751,
1.451,-0.0361633,
1.4515,-0.0881958,
1.452,-0.128784,
1.4525,-0.128021,
1.453,-0.108643,
1.4535,-0.104523,
1.454,-0.0941467,
1.4545,-0.0242615,
1.455,0.0698853,
1.4555,0.13031,
1.456,0.152893,
1.4565,0.117035,
1.457,0.0289917,
1.4575,-0.0476074,
1.458,-0.105591,
1.4585,-0.167389,
1.459,-0.179596,
1.4595,-0.100403,
1.46,0.0012207,
1.4605,0.058136,
1.461,0.0904846,
1.4615,0.110474,
1.462,0.0846863,
1.4625,0.019989,
1.463,-0.0265503,
1.4635,-0.0238037,
1.464,0.00640869,
1.4645,0.0132751,
1.465,-0.0190735,
1.4655,-0.065918,
1.466,-0.0946045,
1.4665,-0.0810242,
1.467,-0.0222778,
1.4675,0.0344849,
1.468,0.04776,
1.4685,0.0265503,
1.469,0.00488281,
1.4695,-0.00823975,
1.47,-0.00640869,
1.4705,0.0210571,
1.471,0.0645447,
1.4715,0.090332,
1.472,0.0834656,
1.4725,0.0598145,
1.473,0.0317383,
1.4735,-0.0160217,
1.474,-0.0479126,
1.4745,-0.0224304,
1.475,0.0189209,
1.4755,0.027771,
1.476,0.00320435,
1.4765,-0.0294495,
1.477,-0.0570679,
1.4775,-0.0921631,
1.478,-0.162354,
1.4785,-0.240936,
1.479,-0.280304,
1.4795,-0.281982,
1.48,-0.270844,
1.4805,-0.261078,
1.481,-0.233917,
1.4815,-0.141449,
1.482,0.0152588,
1.4825,0.167847,
1.483,0.273132,
1.4835,0.340576,
1.484,0.375824,
1.4845,0.355225,
1.485,0.259857,
1.4855,0.114288,
1.486,-0.00732422,
1.4865,-0.0463867,
1.487,-0.0424194,
1.4875,-0.0463867,
1.488,-0.0215149,
1.4885,0.0492859,
1.489,0.109863,
1.4895,0.09552,
1.49,0.0331116,
1.4905,0.00213623,
1.491,0.00396729,
1.4915,0.0163269,
1.492,0.075531,
1.4925,0.14328,
1.493,0.15152,
1.4935,0.113068,
1.494,0.071106,
1.4945,0.0288391,
1.495,-0.00823975,
1.4955,-0.0408936,
1.496,-0.0680542,
1.4965,-0.0805664,
1.497,-0.0816345,
1.4975,-0.0679016,
1.498,-0.0619507,
1.4985,-0.0790405,
1.499,-0.0779724,
1.4995,-0.0270081,
1.5,0.0396729,
1.5005,0.0552368,
1.501,0.0201416,
1.5015,-0.00289917,
1.502,0.0285339,
1.5025,0.0924683,
1.503,0.111389,
1.5035,0.0596619,
1.504,-0.00244141,
1.5045,-0.0421143,
1.505,-0.0500488,
1.5055,-0.04776,
1.506,-0.038147,
1.5065,-0.0267029,
1.507,-0.0415039,
1.5075,-0.0721741,
1.508,-0.0791931,
1.5085,-0.0518799,
1.509,-0.0260925,
1.5095,-0.0260925,
1.51,-0.0270081,
1.5105,-0.0242615,
1.511,-0.0193787,
1.5115,-0.0285339,
1.512,-0.0683594,
1.5125,-0.109711,
1.513,-0.124207,
1.5135,-0.110016,
1.514,-0.0694275,
1.5145,-0.0280762,
1.515,0.00610352,
1.5155,0.0350952,
1.516,0.00961304,
1.5165,-0.0317383,
1.517,0.0123596,
1.5175,0.0891113,
1.518,0.0796509,
1.5185,0.0187683,
1.519,-0.00961304,
1.5195,-0.0364685,
1.52,-0.0720215,
1.5205,-0.0495911,
1.521,0.0305176,
1.5215,0.117798,
1.522,0.144958,
1.5225,0.0891113,
1.523,0.0134277,
1.5235,-0.0283813,
1.524,-0.0360107,
1.5245,-0.0256348,
1.525,-0.00869751,
1.5255,0.0132751,
1.526,0.0335693,
1.5265,0.0241089,
1.527,-0.00656128,
1.5275,0.0180054,
1.528,0.0880432,
1.5285,0.113831,
1.529,0.0828552,
1.5295,0.0480652,
1.53,0.0440979,
1.5305,0.0518799,
1.531,0.0346375,
1.5315,0.00274658,
1.532,-0.00274658,
1.5325,0.019989,
1.533,0.035553,
1.5335,0.0276184,
1.534,0.00427246,
1.5345,-0.014801,
1.535,-0.0222778,
1.5355,-0.0315857,
1.536,-0.0666809,
1.5365,-0.119629,
1.537,-0.154572,
1.5375,-0.166626,
1.538,-0.168304,
1.5385,-0.188904,
1.539,-0.261688,
1.5395,-0.331421,
1.54,-0.325928,
1.5405,-0.273285,
1.541,-0.237122,
1.5415,-0.195313,
1.542,-0.0967407,
1.5425,0.0149536,
1.543,0.0360107,
1.5435,-0.0140381,
1.544,-0.0108337,
1.5445,0.116425,
1.545,0.302734,
1.5455,0.3862,
1.546,0.405731,
1.5465,0.407715,
1.547,0.40741,
1.5475,0.407562,
1.548,0.407104,
1.5485,0.407257,
1.549,0.406952,
1.5495,0.406799,
1.55,0.407104,
1.5505,0.40741,
1.551,0.407257,
1.5515,0.407257,
1.552,0.407257,
1.5525,0.407257,
1.553,0.406952,
1.5535,0.407257,
1.554,0.407257,
1.5545,0.40741,
1.555,0.407104,
1.5555,0.40741,
1.556,0.407104,
1.5565,0.407257,
1.557,0.40741,
1.5575,0.407257,
1.558,0.407104,
1.5585,0.40741,
1.559,0.407104,
1.5595,0.407257,
1.56,0.407104,
1.5605,0.40741,
1.561,0.407257,
1.5615,0.407562,
1.562,0.407257,
1.5625,0.407104,
1.563,0.407257,
1.5635,0.407257,
1.564,0.407104,
1.5645,0.406799,
1.565,0.407257,
1.5655,0.407257,
1.566,0.406952,
1.5665,0.40741,
1.567,0.406952,
1.5675,0.407104,
1.568,0.406952,
1.5685,0.40741,
1.569,0.407104,
1.5695,0.407257,
1.57,0.407257,
1.5705,0.407104,
1.571,0.40741,
1.5715,0.406952,
1.572,0.407562,
1.5725,0.40741,
1.573,0.406799,
1.5735,0.406952,
1.574,0.407104,
1.5745,0.407104,
1.575,0.407257,
1.5755,0.406952,
1.576,0.40741,
1.5765,0.406952,
1.577,0.407104,
1.5775,0.407257,
1.578,0.407104,
1.5785,0.406952,
1.579,0.407104,
1.5795,0.40741,
1.58,0.407257,
1.5805,0.40741,
1.581,0.407104,
1.5815,0.406952,
1.582,0.407257,
1.5825,0.407104,
1.583,0.406952,
1.5835,0.40741,
1.584,0.407257,
1.5845,0.407257,
1.585,0.406952,
1.5855,0.406952,
1.586,0.407104,
1.5865,0.407104,
1.587,0.406952,
1.5875,0.406952,
1.588,0.407257,
1.5885,0.406952,
1.589,0.407104,
1.5895,0.407257,
1.59,0.407104,
1.5905,0.407104,
1.591,0.407104,
1.5915,0.407257,
1.592,0.40741,
1.5925,0.406952,
1.593,0.407257,
1.5935,0.40741,
1.594,0.407104,
1.5945,0.407257,
1.595,0.40741,
1.5955,0.407104,
1.596,0.407104,
1.5965,0.407257,
1.597,0.407257,
1.5975,0.407562,
1.598,0.406952,
1.5985,0.406647,
1.599,0.406799,
1.5995,0.40741,
1.6,0.407257,
1.6005,0.40741,
1.601,0.407104,
1.6015,0.407257,
1.602,0.40741,
1.6025,0.407104,
1.603,0.40741,
1.6035,0.407257,
1.604,0.407257,
1.6045,0.407257,
1.605,0.407104,
1.6055,0.406952,
1.606,0.407104,
1.6065,0.407257,
1.607,0.406799,
1.6075,0.407104,
1.608,0.407257,
1.6085,0.407257,
1.609,0.407257,
1.6095,0.40741,
1.61,0.40741,
1.6105,0.407257,
1.611,0.406799,
1.6115,0.40741,
1.612,0.407104,
1.6125,0.407257,
1.613,0.406952,
1.6135,0.406952,
1.614,0.407104,
1.6145,0.407104,
1.615,0.40741,
1.6155,0.407104,
1.616,0.407104,
1.6165,0.407562,
1.617,0.407257,
1.6175,0.407104,
1.618,0.407257,
1.6185,0.406952,
1.619,0.407257,
1.6195,0.406952,
1.62,0.407257,
1.6205,0.407104,
1.621,0.407104,
1.6215,0.406952,
1.622,0.407104,
1.6225,0.407562,
1.623,0.407257,
1.6235,0.407257,
1.624,0.406952,
1.6245,0.407257,
1.625,0.406952,
1.6255,0.407257,
1.626,0.406952,
1.6265,0.407104,
1.627,0.407257,
1.6275,0.407257,
1.628,0.407715,
1.6285,0.407257,
1.629,0.40741,
1.6295,0.407104,
1.63,0.407104,
1.6305,0.407104,
1.631,0.406647,
1.6315,0.406799,
1.632,0.407257,
1.6325,0.407104,
1.633,0.407257,
1.6335,0.407257,
1.634,0.407104,
1.6345,0.407104,
1.635,0.407104,
1.6355,0.407257,
1.636,0.407104,
1.6365,0.407257,
1.637,0.407257,
1.6375,0.407104,
1.638,0.406799,
1.6385,0.407104,
1.639,0.407257,
1.6395,0.407715,
1.64,0.407257,
1.6405,0.407104,
1.641,0.407104,
1.6415,0.407562,
1.642,0.407257,
1.6425,0.407104,
1.643,0.407257,
1.6435,0.407104,
1.644,0.406952,
1.6445,0.407104,
1.645,0.406952,
1.6455,0.407257,
1.646,0.406799,
1.6465,0.40741,
1.647,0.407257,
1.6475,0.407104,
1.648,0.407257,
1.6485,0.407562,
1.649,0.407104,
1.6495,0.407257,
1.65,0.407257,
1.6505,0.407715,
1.651,0.407257,
1.6515,0.407257,
1.652,0.40741,
1.6525,0.407104,
1.653,0.407257,
1.6535,0.406952,
1.654,0.407257,
1.6545,0.407104,
1.655,0.40741,
1.6555,0.407257,
1.656,0.407257,
1.6565,0.407257,
1.657,0.40741,
1.6575,0.407104,
1.658,0.407257,
1.6585,0.40741,
1.659,0.40741,
1.6595,0.407257,
1.66,0.40741,
1.6605,0.407104,
1.661,0.407104,
1.6615,0.407257,
1.662,0.407104,
1.6625,0.407257,
1.663,0.40741,
1.6635,0.40741,
1.664,0.406952,
1.6645,0.406952,
1.665,0.407104,
1.6655,0.406952,
1.666,0.407257,
1.6665,0.407257,
1.667,0.40741,
1.6675,0.407104,
1.668,0.40741,
1.6685,0.406952,
1.669,0.407257,
1.6695,0.407104,
1.67,0.407257,
1.6705,0.407104,
1.671,0.407104,
1.6715,0.407257,
1.672,0.407562,
1.6725,0.40741,
1.673,0.407104,
1.6735,0.407104,
1.674,0.407104,
1.6745,0.407104,
1.675,0.40741,
1.6755,0.407257,
1.676,0.407257,
1.6765,0.40741,
1.677,0.407104,
1.6775,0.310974,
1.678,-0.409851,
1.6785,-0.753479,
1.679,-0.820923,
1.6795,-0.800629,
1.68,-0.805817,
1.6805,-0.821686,
1.681,-0.782471,
1.6815,-0.65033,
1.682,-0.489044,
1.6825,-0.406952,
1.683,-0.384827,
1.6835,-0.381775,
1.684,-0.381927,
1.6845,-0.384064,
1.685,-0.391998,
1.6855,-0.343323,
1.686,-0.248718,
1.6865,-0.215759,
1.687,-0.242462,
1.6875,-0.25528,
1.688,-0.23407,
1.6885,-0.207062,
1.689,-0.184174,
1.6895,-0.162964,
1.69,-0.121765,
1.6905,-0.0798035,
1.691,-0.0817871,
1.6915,-0.101929,
1.692,-0.109558,
1.6925,-0.109558,
1.693,-0.10849,
1.6935,-0.0924683,
1.694,-0.0723267,
1.6945,-0.0695801,
1.695,-0.0750732,
1.6955,-0.0408936,
1.696,0.0933838,
1.6965,0.260315,
1.697,0.31662,
1.6975,0.242004,
1.698,0.186462,
1.6985,0.214081,
1.699,0.233765,
1.6995,0.205231,
1.7,0.146027,
1.7005,0.101776,
1.701,0.127869,
1.7015,0.195465,
1.702,0.222321,
1.7025,0.195923,
1.703,0.149384,
1.7035,0.0831604,
1.704,-0.00106812,
1.7045,-0.0724792,
1.705,-0.128021,
1.7055,-0.147858,
1.706,-0.113678,
1.7065,-0.0515747,
1.707,0.0428772,
1.7075,0.17868,
1.708,0.29068,
1.7085,0.330505,
1.709,0.311432,
1.7095,0.285339,
1.71,0.332794,
1.7105,0.450592,
1.711,0.543213,
1.7115,0.594177,
1.712,0.607605,
1.7125,0.556793,
1.713,0.495605,
1.7135,0.450439,
1.714,0.390625,
1.7145,0.316467,
1.715,0.242004,
1.7155,0.186462,
1.716,0.153809,
1.7165,0.141754,
1.717,0.167084,
1.7175,0.213318,
1.718,0.244446,
1.7185,0.232086,
1.719,0.207062,
1.7195,0.196991,
1.72,0.180817,
1.7205,0.138092,
1.721,0.0665283,
1.7215,0.015564,
1.722,0.0192261,
1.7225,0.0772095,
1.723,0.149536,
1.7235,0.193024,
1.724,0.215607,
1.7245,0.243683,
1.725,0.273743,
1.7255,0.257568,
1.726,0.194855,
1.7265,0.119476,
1.727,0.0521851,
1.7275,0.00732422,
1.728,0.0282288,
1.7285,0.139313,
1.729,0.223389,
1.7295,0.228882,
1.73,0.216522,
1.7305,0.198517,
1.731,0.166626,
1.7315,0.129547,
1.732,0.104523,
1.7325,0.072937,
1.733,0.0463867,
1.7335,0.0662231,
1.734,0.100708,
1.7345,0.0817871,
1.735,0.0274658,
1.7355,0.00976563,
1.736,0.0126648,
1.7365,0.0088501,
1.737,0.0401306,
1.7375,0.105133,
1.738,0.162201,
1.7385,0.210724,
1.739,0.229187,
1.7395,0.215607,
1.74,0.15564,
1.7405,0.0508118,
1.741,-0.0454712,
1.7415,-0.0979614,
1.742,-0.123901,
1.7425,-0.127258,
1.743,-0.132141,
1.7435,-0.151367,
1.744,-0.132751,
1.7445,-0.0630188,
1.745,-0.0160217,
1.7455,0.00350952,
1.746,0.0663757,
1.7465,0.138702,
1.747,0.155792,
1.7475,0.157623,
1.748,0.17334,
1.7485,0.159607,
1.749,0.127258,
1.7495,0.143433,
1.75,0.190277,
1.7505,0.189819,
1.751,0.115509,
1.7515,-0.000305176,
1.752,-0.059967,
1.7525,-0.0440979,
1.753,-0.00442505,
1.7535,0.00167847,
1.754,-0.0767517,
1.7545,-0.203857,
1.755,-0.289001,
1.7555,-0.290375,
1.756,-0.218658,
1.7565,-0.107727,
1.757,0.0152588,
1.7575,0.102386,
1.758,0.080719,
1.7585,-0.0254822,
1.759,-0.070343,
1.7595,-0.00595093,
1.76,0.131531,
1.7605,0.284882,
1.761,0.361633,
1.7615,0.326843,
1.762,0.230408,
1.7625,0.117645,
1.763,0.0427246,
1.7635,0.0430298,
1.764,0.0592041,
1.7645,0.0547791,
1.765,0.0318909,
1.7655,-0.0288391,
1.766,-0.0791931,
1.7665,-0.0531006,
1.767,0.00808716,
1.7675,0.0346375,
1.768,-0.00595093,
1.7685,-0.0524902,
1.769,-0.0486755,
1.7695,-0.00823975,
1.77,0.0283813,
1.7705,0.045929,
1.771,0.0852966,
1.7715,0.159149,
1.772,0.197296,
1.7725,0.14267,
1.773,0.032959,
1.7735,-0.0698853,
1.774,-0.138855,
1.7745,-0.123596,
1.775,-0.0350952,
1.7755,0.01297,
1.776,-0.0315857,
1.7765,-0.132751,
1.777,-0.206146,
1.7775,-0.176849,
1.778,-0.0932312,
1.7785,-0.0611877,
1.779,-0.0907898,
1.7795,-0.130005,
1.78,-0.15274,
1.7805,-0.123749,
1.781,-0.0390625,
1.7815,0.0178528,
1.782,-0.0190735,
1.7825,-0.120239,
1.783,-0.209045,
1.7835,-0.253296,
1.784,-0.253906,
1.7845,-0.201111,
1.785,-0.122528,
1.7855,-0.0331116,
1.786,0.0419617,
1.7865,0.06073,
1.787,0.0180054,
1.7875,-0.030365,
1.788,-0.0396729,
1.7885,-0.0175476,
1.789,-0.0114441,
1.7895,-0.0382996,
1.79,-0.0482178,
1.7905,0.0236511,
1.791,0.127258,
1.7915,0.147858,
1.792,0.0561523,
1.7925,-0.0660706,
1.793,-0.108795,
1.7935,-0.0062561,
1.794,0.152283,
1.7945,0.266266,
1.795,0.279083,
1.7955,0.192871,
1.796,0.080719,
1.7965,-0.000915527,
1.797,-0.0296021,
1.7975,-0.0218201,
1.798,-0.0193787,
1.7985,-0.0228882,
1.799,-0.00274658,
1.7995,0.0259399,
1.8,0.0331116,
1.8005,0.0396729,
1.801,0.025177,
1.8015,-0.0312805,
1.802,-0.052948,
1.8025,0.012207,
1.803,0.0827026,
1.8035,0.0863647,
1.804,0.0384521,
1.8045,0.000152588,
1.805,0.000610352,
1.8055,0.000762939,
1.806,-0.0218201,
1.8065,-0.0456238,
1.807,-0.055542,
1.8075,-0.0735474,
1.808,-0.0976563,
1.8085,-0.0901794,
1.809,-0.0646973,
1.8095,-0.0889587,
1.81,-0.144958,
1.8105,-0.164032,
1.811,-0.139618,
1.8115,-0.0897217,
1.812,-0.0604248,
1.8125,-0.0863647,
1.813,-0.0999451,
1.8135,-0.0817871,
1.814,-0.0959778,
1.8145,-0.121307,
1.815,-0.112,
1.8155,-0.0883484,
1.816,-0.0598145,
1.8165,-0.0265503,
1.817,-0.0141907,
1.8175,-0.0131226,
1.818,0.0038147,
1.8185,0.0215149,
1.819,0.0193787,
1.8195,-0.000457764,
1.82,-0.0280762,
1.8205,-0.0543213,
1.821,-0.0428772,
1.8215,0.0132751,
1.822,0.0662231,
1.8225,0.0698853,
1.823,0.040741,
1.8235,0.0154114,
1.824,0.00152588,
1.8245,-0.000762939,
1.825,0.0343323,
1.8255,0.139771,
1.826,0.274048,
1.8265,0.311737,
1.827,0.228271,
1.8275,0.114136,
1.828,0.0311279,
1.8285,-0.0384521,
1.829,-0.122681,
1.8295,-0.205078,
1.83,-0.226593,
1.8305,-0.200653,
1.831,-0.160217,
1.8315,-0.0682068,
1.832,0.0691223,
1.8325,0.15213,
1.833,0.15213,
1.8335,0.0854492,
1.834,0.00274658,
1.8345,-0.04776,
1.835,-0.0680542,
1.8355,-0.0846863,
1.836,-0.10498,
1.8365,-0.117645,
1.837,-0.105133,
1.8375,-0.0842285,
1.838,-0.0921631,
1.8385,-0.124512,
1.839,-0.122681,
1.8395,-0.085907,
1.84,-0.0559998,
1.8405,-0.0138855,
1.841,0.0495911,
1.8415,0.085907,
1.842,0.107727,
1.8425,0.157928,
1.843,0.20401,
1.8435,0.20462,
1.844,0.158081,
1.8445,0.0997925,
1.845,0.0688171,
1.8455,0.0686646,
1.846,0.0816345,
1.8465,0.0758362,
1.847,0.0758362,
1.8475,0.0924683,
1.848,0.0526428,
1.8485,-0.0436401,
1.849,-0.0990295,
1.8495,-0.0869751,
1.85,-0.0738525,
1.8505,-0.0691223,
1.851,-0.0640869,
1.8515,-0.0585938,
1.852,-0.0372314,
1.8525,-0.00778198,
1.853,0.00656128,
1.8535,0.00595093,
1.854,0.0123596,
1.8545,0.0183105,
1.855,0.030365,
1.8555,0.0482178,
1.856,0.0502014,
1.8565,0.018158,
1.857,-0.0358582,
1.8575,-0.0663757,
1.858,-0.0213623,
1.8585,0.0631714,
1.859,0.117493,
1.8595,0.11673,
1.86,0.100403,
1.8605,0.11261,
1.861,0.105743,
1.8615,0.035553,
1.862,-0.0267029,
1.8625,-0.0328064,
1.863,-0.0369263,
1.8635,-0.0398254,
1.864,0.00732422,
1.8645,0.0334167,
1.865,-0.0439453,
1.8655,-0.184021,
1.866,-0.322113,
1.8665,-0.426636,
1.867,-0.480804,
1.8675,-0.509644,
1.868,-0.51239,
1.8685,-0.424805,
1.869,-0.258942,
1.8695,-0.0868225,
1.87,0.0491333,
1.8705,0.181885,
1.871,0.335999,
1.8715,0.409393,
1.872,0.368652,
1.8725,0.326233,
1.873,0.36438,
1.8735,0.417175,
1.874,0.373688,
1.8745,0.242157,
1.875,0.119324,
1.8755,0.0482178,
1.876,0.0184631,
1.8765,0.0311279,
1.877,0.0578308,
1.8775,0.065918,
1.878,0.0645447,
1.8785,0.0817871,
1.879,0.126495,
1.8795,0.158081,
1.88,0.167999,
1.8805,0.165405,
1.881,0.140076,
1.8815,0.103302,
1.882,0.0767517,
1.8825,0.0637817,
1.883,0.00213623,
1.8835,-0.102539,
1.884,-0.119934,
1.8845,-0.0398254,
1.885,0.0216675,
1.8855,-0.00976563,
1.886,-0.0814819,
1.8865,-0.100098,
1.887,-0.065155,
1.8875,-0.0701904,
1.888,-0.0984192,
1.8885,-0.0984192,
1.889,-0.126038,
1.8895,-0.16037,
1.89,-0.140991,
1.8905,-0.135193,
1.891,-0.170441,
1.8915,-0.2034,
1.892,-0.219421,
1.8925,-0.225983,
1.893,-0.211182,
1.8935,-0.153656,
1.894,-0.0679016,
1.8945,0.0344849,
1.895,0.121918,
1.8955,0.13092,
1.896,0.0842285,
1.8965,0.0524902,
1.897,0.025177,
1.8975,0.00457764,
1.898,0.0346375,
1.8985,0.111389,
1.899,0.181274,
1.8995,0.179443,
1.9,0.124207,
1.9005,0.0642395,
1.901,0.0140381,
1.9015,-0.0360107,
1.902,-0.0537109,
1.9025,0.00488281,
1.903,0.0759888,
1.9035,0.0592041,
1.904,0.000762939,
1.9045,-0.030365,
1.905,-0.0502014,
1.9055,-0.0747681,
1.906,-0.101624,
1.9065,-0.135193,
1.907,-0.138397,
1.9075,-0.088501,
1.908,-0.0494385,
1.9085,-0.0575256,
1.909,-0.0830078,
1.9095,-0.0914001,
1.91,-0.0732422,
1.9105,-0.0650024,
1.911,-0.0798035,
1.9115,-0.0897217,
1.912,-0.0732422,
1.9125,-0.0224304,
1.913,0.00366211,
1.9135,-0.0227356,
1.914,-0.0469971,
1.9145,-0.0283813,
1.915,-0.00274658,
1.9155,-0.032196,
1.916,-0.115662,
1.9165,-0.187225,
1.917,-0.202179,
1.9175,-0.177002,
1.918,-0.138092,
1.9185,-0.0674438,
1.919,0.0305176,
1.9195,0.11795,
1.92,0.147552,
1.9205,0.101318,
1.921,0.0346375,
1.9215,0.00244141,
1.922,-0.000457764,
1.9225,-0.00915527,
1.923,-0.0320435,
1.9235,-0.039978,
1.924,-0.0227356,
1.9245,0.00900269,
1.925,0.052948,
1.9255,0.0756836,
1.926,0.0505066,
1.9265,0.0154114,
1.927,0.0238037,
1.9275,0.0715637,
1.928,0.129089,
1.9285,0.176544,
1.929,0.198975,
1.9295,0.168457,
1.93,0.101166,
1.9305,0.045166,
1.931,0.0354004,
1.9315,0.0512695,
1.932,0.0575256,
1.9325,0.0376892,
1.933,0.00808716,
1.9335,-0.0161743,
1.934,-0.0325012,
1.9345,-0.0567627,
1.935,-0.088501,
1.9355,-0.114594,
1.936,-0.133972,
1.9365,-0.137634,
1.937,-0.140686,
1.9375,-0.128632,
1.938,-0.0914001,
1.9385,-0.0881958,
1.939,-0.142365,
1.9395,-0.184479,
1.94,-0.143127,
1.9405,-0.0498962,
1.941,0.00305176,
1.9415,0.0247192,
1.942,0.0320435,
1.9425,0.000305176,
1.943,-0.0260925,
1.9435,0.0505066,
1.944,0.161285,
1.9445,0.181427,
1.945,0.146179,
1.9455,0.166626,
1.946,0.207062,
1.9465,0.177155,
1.947,0.0762939,
1.9475,-0.00473022,
1.948,-0.0088501,
1.9485,0.0357056,
1.949,0.071106,
1.9495,0.0671387,
1.95,0.063324,
1.9505,0.09552,
1.951,0.127106,
1.9515,0.115356,
1.952,0.08255,
1.9525,0.0567627,
1.953,0.0265503,
1.9535,-0.014801,
1.954,-0.0311279,
1.9545,-0.0204468,
1.955,-0.00732422,
1.9555,0.0125122,
1.956,0.000152588,
1.9565,-0.04776,
1.957,-0.0610352,
1.9575,-0.0621033,
1.958,-0.0749207,
1.9585,-0.0372314,
1.959,0.0154114,
1.9595,0.00976563,
1.96,-0.0424194,
1.9605,-0.100403,
1.961,-0.139618,
1.9615,-0.130615,
1.962,-0.0662231,
1.9625,-0.0382996,
1.963,-0.0888062,
1.9635,-0.157776,
1.964,-0.195007,
1.9645,-0.226288,
1.965,-0.219116,
1.9655,-0.131378,
1.966,-0.0202942,
1.9665,0.0350952,
1.967,0.0213623,
1.9675,-0.00244141,
1.968,0.0119019,
1.9685,0.0593567,
1.969,0.103302,
1.9695,0.0991821,
1.97,0.0648499,
1.9705,0.0408936,
1.971,0.040741,
1.9715,0.0488281,
1.972,0.0415039,
1.9725,0.0134277,
1.973,-0.0280762,
1.9735,-0.0520325,
1.974,-0.0695801,
1.9745,-0.0790405,
1.975,-0.0904846,
1.9755,-0.126038,
1.976,-0.124207,
1.9765,-0.0500488,
1.977,0.0108337,
1.9775,-0.00869751,
1.978,-0.0379944,
1.9785,-0.000457764,
1.979,0.112305,
1.9795,0.219421,
1.98,0.277405,
1.9805,0.277863,
1.981,0.237732,
1.9815,0.202484,
1.982,0.220184,
1.9825,0.27298,
1.983,0.276337,
1.9835,0.228882,
1.984,0.18631,
1.9845,0.161133,
1.985,0.122681,
1.9855,0.0537109,
1.986,-0.0201416,
1.9865,-0.0556946,
1.987,-0.032959,
1.9875,0.00930786,
1.988,0.0332642,
1.9885,0.0367737,
1.989,0.00732422,
1.9895,-0.0628662,
1.99,-0.121765,
1.9905,-0.118408,
1.991,-0.0578308,
1.9915,0.0270081,
1.992,0.0801086,
1.9925,0.0558472,
1.993,-0.014801,
1.9935,-0.0665283,
1.994,-0.0572205,
1.9945,0.00183105,
1.995,0.0315857,
1.9955,0.000610352,
1.996,-0.032959,
1.9965,-0.0331116,
1.997,-0.0218201,
1.9975,-0.0161743,
1.998,-0.025177,
1.9985,-0.0601196,
1.999,-0.109253,
1.9995,-0.119781,
2,-0.0991821,
2.0005,-0.0874329,
2.001,-0.0909424,
2.0015,-0.0701904,
2.002,-0.0128174,
2.0025,0.0263977,
2.003,0.0205994,
2.0035,0.000610352,
2.004,-0.0102234,
2.0045,-0.00701904,
2.005,-0.00396729,
2.0055,0.0109863,
2.006,0.0302124,
2.0065,0.0180054,
2.007,-0.00305176,
2.0075,0.000152588,
2.008,0.0320435,
2.0085,0.0663757,
2.009,0.0770569,
2.0095,0.0691223,
2.01,0.0309753,
2.0105,-0.0334167,
2.011,-0.100098,
2.0115,-0.149078,
2.012,-0.185394,
2.0125,-0.201721,
2.013,-0.193481,
2.0135,-0.166626,
2.014,-0.148163,
2.0145,-0.104828,
2.015,0.00930786,
2.0155,0.135651,
2.016,0.22171,
2.0165,0.249634,
2.017,0.181122,
2.0175,0.0340271,
2.018,-0.0547791,
2.0185,0.0088501,
2.019,0.116577,
2.0195,0.143127,
2.02,0.107574,
2.0205,0.087738,
2.021,0.105591,
2.0215,0.126343,
2.022,0.121307,
2.0225,0.118561,
2.023,0.155029,
2.0235,0.159912,
2.024,0.0965881,
2.0245,0.0341797,
2.025,-0.000915527,
2.0255,-0.0491333,
2.026,-0.117798,
2.0265,-0.139008,
2.027,-0.116272,
2.0275,-0.0978088,
2.028,-0.0811768,
2.0285,-0.0752258,
2.029,-0.0939941,
2.0295,-0.100555,
2.03,-0.0785828,
2.0305,-0.0569153,
2.031,-0.052948,
2.0315,-0.0727844,
2.032,-0.0927734,
2.0325,-0.0480652,
2.033,0.0375366,
2.0335,0.0617981,
2.034,0.00976563,
2.0345,-0.062561,
2.035,-0.132141,
2.0355,-0.187073,
2.036,-0.176239,
2.0365,-0.132904,
2.037,-0.12146,
2.0375,-0.1297,
2.038,-0.10025,
2.0385,-0.0462341,
2.039,-0.0088501,
2.0395,-0.00488281,
2.04,-0.0286865,
2.0405,-0.0505066,
2.041,-0.0143433,
2.0415,0.119171,
2.042,0.26825,
2.0425,0.306549,
2.043,0.221558,
2.0435,0.0679016,
2.044,-0.0613403,
2.0445,-0.0993347,
2.045,-0.0991821,
2.0455,-0.0875854,
2.046,-0.0338745,
2.0465,0.0247192,
2.047,0.065155,
2.0475,0.126343,
2.048,0.219879,
2.0485,0.296173,
2.049,0.324249,
2.0495,0.310211,
2.05,0.254059,
2.0505,0.153809,
2.051,0.0495911,
2.0515,-0.00808716,
2.052,-0.0213623,
2.0525,-0.0201416,
2.053,-0.037384,
2.0535,-0.0372314,
2.054,-0.0177002,
2.0545,-0.0471497,
2.055,-0.132599,
2.0555,-0.224304,
2.056,-0.307007,
2.0565,-0.353394,
2.057,-0.339203,
2.0575,-0.289917,
2.058,-0.201569,
2.0585,-0.0920105,
2.059,-0.0294495,
2.0595,-0.019989,
2.06,0.0100708,
2.0605,0.111847,
2.061,0.219727,
2.0615,0.264587,
2.062,0.240173,
2.0625,0.166779,
2.063,0.0843811,
2.0635,0.030365,
2.064,0.0314331,
2.0645,0.0656128,
2.065,0.102386,
2.0655,0.149994,
2.066,0.195618,
2.0665,0.202789,
2.067,0.152893,
2.0675,0.0569153,
2.068,-0.020752,
2.0685,-0.0492859,
2.069,-0.0567627,
2.0695,-0.0482178,
2.07,-0.0205994,
2.0705,0.000762939,
2.071,-0.00274658,
2.0715,-0.0267029,
2.072,-0.0357056,
2.0725,-0.00457764,
2.073,0.0108337,
2.0735,-0.0248718,
2.074,-0.0769043,
2.0745,-0.124359,
2.075,-0.159454,
2.0755,-0.149384,
2.076,-0.0892639,
2.0765,-0.0448608,
2.077,-0.0582886,
2.0775,-0.119781,
2.078,-0.172729,
2.0785,-0.193024,
2.079,-0.180817,
2.0795,-0.180054,
2.08,-0.177002,
2.0805,-0.119781,
2.081,-0.042572,
2.0815,0.0109863,
2.082,0.0448608,
2.0825,0.0785828,
2.083,0.100861,
2.0835,0.0968933,
2.084,0.0924683,
2.0845,0.0827026,
2.085,0.0442505,
2.0855,0.0163269,
2.086,0.0271606,
2.0865,0.0672913,
2.087,0.0933838,
2.0875,0.0750732,
2.088,0,
2.0885,-0.0646973,
2.089,-0.0933838,
2.0895,-0.119324,
2.09,-0.134888,
2.0905,-0.124207,
2.091,-0.0950623,
2.0915,-0.070343,
2.092,-0.0483704,
2.0925,-0.06073,
2.093,-0.12085,
2.0935,-0.137787,
2.094,-0.0880432,
2.0945,-0.0448608,
2.095,-0.0296021,
2.0955,-0.00778198,
2.096,0.0263977,
2.0965,0.0932312,
2.097,0.19104,
2.0975,0.273132,
2.098,0.304108,
2.0985,0.294342,
2.099,0.272827,
2.0995,0.233154,
2.1,0.176239,
2.1005,0.128937,
2.101,0.0932312,
2.1015,0.0448608,
2.102,-0.0294495,
2.1025,-0.0915527,
2.103,-0.106812,
2.1035,-0.0900269,
2.104,-0.0697327,
2.1045,-0.0520325,
2.105,-0.0300598,
2.1055,0.0219727,
2.106,0.0808716,
2.1065,0.085144,
2.107,0.0300598,
2.1075,-0.0427246,
2.108,-0.0965881,
2.1085,-0.131073,
2.109,-0.109558,
2.1095,-0.0288391,
2.11,0.0466919,
2.1105,0.0616455,
2.111,0.0450134,
2.1115,0.0257874,
2.112,-0.0125122,
2.1125,-0.0669861,
2.113,-0.120392,
2.1135,-0.164642,
2.114,-0.220947,
2.1145,-0.278625,
2.115,-0.304871,
2.1155,-0.299225,
2.116,-0.277863,
2.1165,-0.278473,
2.117,-0.304565,
2.1175,-0.239258,
2.118,-0.0534058,
2.1185,0.110321,
2.119,0.152283,
2.1195,0.0700378,
2.12,-0.0259399,
2.1205,-0.052948,
2.121,-0.0570679,
2.1215,-0.0679016,
2.122,-0.0846863,
2.1225,-0.0979614,
2.123,-0.0770569,
2.1235,0.0552368,
2.124,0.26062,
2.1245,0.357513,
2.125,0.256042,
2.1255,0.0917053,
2.126,0.0180054,
2.1265,0.100098,
2.127,0.284271,
2.1275,0.420227,
2.128,0.480804,
2.1285,0.484314,
2.129,0.430145,
2.1295,0.338287,
2.13,0.262604,
2.1305,0.240784,
2.131,0.254517,
2.1315,0.203705,
2.132,0.0543213,
2.1325,-0.0849915,
2.133,-0.0909424,
2.1335,0.0163269,
2.134,0.0642395,
2.1345,-0.0378418,
2.135,-0.154877,
2.1355,-0.180969,
2.136,-0.170593,
2.1365,-0.178223,
2.137,-0.187073,
2.1375,-0.150452,
2.138,-0.0564575,
2.1385,0.0479126,
2.139,0.110779,
2.1395,0.152588,
2.14,0.167389,
2.1405,0.0402832,
2.141,-0.164185,
2.1415,-0.281219,
2.142,-0.285797,
2.1425,-0.267029,
2.143,-0.248108,
2.1435,-0.244598,
2.144,-0.229187,
2.1445,-0.248871,
2.145,-0.319214,
2.1455,-0.381927,
2.146,-0.372162,
2.1465,-0.324707,
2.147,-0.271149,
2.1475,-0.157471,
2.148,-0.0144958,
2.1485,0.0921631,
2.149,0.167999,
2.1495,0.209503,
2.15,0.210876,
2.1505,0.218048,
2.151,0.258636,
2.1515,0.285187,
2.152,0.261536,
2.1525,0.191193,
2.153,0.137024,
2.1535,0.150452,
2.154,0.187531,
2.1545,0.179901,
2.155,0.146484,
2.1555,0.1297,
2.156,0.105591,
2.1565,0.0593567,
2.157,0.0386047,
2.1575,0.0427246,
2.158,0.0436401,
2.1585,0.0247192,
2.159,0.00213623,
2.1595,0.00534058,
2.16,0.00610352,
2.1605,0.0164795,
2.161,0.0469971,
2.1615,0.0332642,
2.162,-0.0747681,
2.1625,-0.184479,
2.163,-0.21759,
2.1635,-0.184631,
2.164,-0.115509,
2.1645,-0.0602722,
2.165,-0.0631714,
2.1655,-0.0592041,
2.166,0.0248718,
2.1665,0.135956,
2.167,0.190125,
2.1675,0.183411,
2.168,0.121002,
2.1685,0.0183105,
2.169,-0.0765991,
2.1695,-0.104675,
2.17,-0.0671387,
2.1705,-0.0123596,
2.171,0.00366211,
2.1715,-0.0561523,
2.172,-0.177765,
2.1725,-0.284729,
2.173,-0.248566,
2.1735,-0.0817871,
2.174,-0.0012207,
2.1745,-0.0865173,
2.175,-0.166168,
2.1755,-0.147095,
2.176,-0.105438,
2.1765,-0.104675,
2.177,-0.091095,
2.1775,-0.0334167,
2.178,0.0152588,
2.1785,0.0271606,
2.179,-0.0592041,
2.1795,-0.262451,
2.18,-0.376587,
2.1805,-0.314789,
2.181,-0.213165,
2.1815,-0.136871,
2.182,-0.0613403,
2.1825,0.0418091,
2.183,0.171814,
2.1835,0.303497,
2.184,0.39032,
2.1845,0.391541,
2.185,0.315704,
2.1855,0.234985,
2.186,0.181427,
2.1865,0.132904,
2.187,0.0968933,
2.1875,0.105591,
2.188,0.102692,
2.1885,0.0352478,
2.189,-0.0244141,
2.1895,-0.00946045,
2.19,0.0514221,
2.1905,0.0900269,
2.191,0.0804138,
2.1915,0.00900269,
2.192,-0.111847,
2.1925,-0.194855,
2.193,-0.208282,
2.1935,-0.172729,
2.194,-0.109406,
2.1945,-0.0288391,
2.195,0.0242615,
2.1955,0.020752,
2.196,-0.025177,
2.1965,-0.0912476,
2.197,-0.152283,
2.1975,-0.193329,
2.198,-0.207672,
2.1985,-0.200958,
2.199,-0.215454,
2.1995,-0.174408,
2.2,-0.0376892,
2.2005,0.0985718,
2.201,0.17334,
2.2015,0.177155,
2.202,0.0817871,
2.2025,-0.0732422,
2.203,-0.226898,
2.2035,-0.298615,
2.204,-0.249939,
2.2045,-0.14267,
2.205,-0.00396729,
2.2055,0.152435,
2.206,0.272064,
2.2065,0.289001,
2.207,0.212402,
2.2075,0.140991,
2.208,0.163574,
2.2085,0.233459,
2.209,0.249634,
2.2095,0.189056,
2.21,0.12619,
2.2105,0.0782776,
2.211,0.0593567,
2.2115,0.0668335,
2.212,0.0915527,
2.2125,0.114899,
2.213,0.101013,
2.2135,0.045929,
2.214,-0.00534058,
2.2145,0.00595093,
2.215,0.00900269,
2.2155,-0.0382996,
2.216,-0.0480652,
2.2165,-0.00640869,
2.217,0.0553894,
2.2175,0.127258,
2.218,0.162048,
2.2185,0.134583,
2.219,0.100861,
2.2195,0.110016,
2.22,0.100708,
2.2205,0.0276184,
2.221,-0.0810242,
2.2215,-0.14328,
2.222,-0.0848389,
2.2225,0.0306702,
2.223,0.0473022,
2.2235,-0.0509644,
2.224,-0.144043,
2.2245,-0.187378,
2.225,-0.22171,
2.2255,-0.213623,
2.226,-0.162811,
2.2265,-0.137939,
2.227,-0.149231,
2.2275,-0.110321,
2.228,-0.057373,
2.2285,-0.101013,
2.229,-0.149689,
2.2295,-0.158844,
2.23,-0.233765,
2.2305,-0.30426,
2.231,-0.413818,
2.2315,-0.752716,
2.232,-1.03729,
2.2325,-1.00311,
2.233,-0.746002,
2.2335,-0.491333,
2.234,-0.283661,
2.2345,-0.0444031,
2.235,0.200806,
2.2355,0.332336,
2.236,0.352936,
2.2365,0.404205,
2.237,0.498505,
2.2375,0.520782,
2.238,0.471344,
2.2385,0.468292,
2.239,0.483551,
2.2395,0.407257,
2.24,0.220947,
2.2405,0.0521851,
2.241,0.0465393,
2.2415,0.223999,
2.242,0.51712,
2.2425,0.825806,
2.243,1.0527,
2.2435,1.11816,
2.244,0.961914,
2.2445,0.679626,
2.245,0.433044,
2.2455,0.260315,
2.246,0.132294,
2.2465,0.050354,
2.247,-0.124359,
2.2475,-0.423737,
2.248,-0.602417,
2.2485,-0.617676,
2.249,-0.579834,
2.2495,-0.487823,
2.25,-0.306549,
2.2505,-0.0657654,
2.251,0.19577,
2.2515,0.374908,
2.252,0.406952,
2.2525,0.388794,
2.253,0.374298,
2.2535,0.326538,
2.254,0.188599,
2.2545,-0.0114441,
2.255,-0.23056,
2.2555,-0.37323,
2.256,-0.43808,
2.2565,-0.448151,
2.257,-0.428314,
2.2575,-0.437622,
2.258,-0.452728,
2.2585,-0.41214,
2.259,-0.28595,
2.2595,-0.111694,
2.26,-0.0108337,
2.2605,-0.00839233,
2.261,-0.0518799,
2.2615,-0.150757,
2.262,-0.252533,
2.2625,-0.295105,
2.263,-0.259399,
2.2635,-0.169678,
2.264,-0.0984192,
2.2645,-0.0686646,
2.265,-0.0289917,
2.2655,0.06073,
2.266,0.129395,
2.2665,0.148315,
2.267,0.158081,
2.2675,0.142365,
2.268,0.0289917,
2.2685,-0.0498962,
2.269,0.0119019,
2.2695,0.0619507,
2.27,0.00488281,
2.2705,-0.0790405,
2.271,-0.137329,
2.2715,-0.233459,
2.272,-0.313873,
2.2725,-0.288239,
2.273,-0.179443,
2.2735,-0.0653076,
2.274,-0.0352478,
2.2745,-0.091095,
2.275,-0.189056,
2.2755,-0.307159,
2.276,-0.537109,
2.2765,-0.769043,
2.277,-0.848846,
2.2775,-0.788727,
2.278,-0.632324,
2.2785,-0.424652,
2.279,-0.201263,
2.2795,-0.010376,
2.28,0.135651,
2.2805,0.254364,
2.281,0.336609,
2.2815,0.422821,
2.282,0.50415,
2.2825,0.511932,
2.283,0.467072,
2.2835,0.449829,
2.284,0.382233,
2.2845,0.297852,
2.285,0.275116,
2.2855,0.259705,
2.286,0.187378,
2.2865,0.13031,
2.287,0.166321,
2.2875,0.253448,
2.288,0.330811,
2.2885,0.357208,
2.289,0.325775,
2.2895,0.263672,
2.29,0.230408,
2.2905,0.234985,
2.291,0.206604,
2.2915,0.128326,
2.292,0.0747681,
2.2925,0.0784302,
2.293,0.0950623,
2.2935,0.125732,
2.294,0.180664,
2.2945,0.168152,
2.295,0.0473022,
2.2955,-0.0866699,
2.296,-0.123138,
2.2965,-0.0791931,
2.297,-0.0444031,
2.2975,-0.06073,
2.298,-0.070343,
2.2985,-0.00900269,
2.299,0.0582886,
2.2995,0.0276184,
2.3,-0.0744629,
2.3005,-0.161285,
2.301,-0.220642,
2.3015,-0.275879,
2.302,-0.326691,
2.3025,-0.349731,
2.303,-0.37384,
2.3035,-0.414124,
2.304,-0.404053,
2.3045,-0.303955,
2.305,-0.200195,
2.3055,-0.136566,
2.306,-0.0724792,
2.3065,-0.0149536,
2.307,-0.0572205,
2.3075,-0.200958,
2.308,-0.297546,
2.3085,-0.267029,
2.309,-0.199127,
2.3095,-0.167236,
2.31,-0.125732,
2.3105,-0.0332642,
2.311,0.0820923,
2.3115,0.146484,
2.312,0.108643,
2.3125,-0.032959,
2.313,-0.13504,
2.3135,-0.115051,
2.314,0.0163269,
2.3145,0.148315,
2.315,0.263367,
2.3155,0.398712,
2.316,0.427704,
2.3165,0.3302,
2.317,0.236511,
2.3175,0.214386,
2.318,0.214081,
2.3185,0.186615,
2.319,0.139313,
2.3195,0.0939941,
2.32,0.0880432,
2.3205,0.0764465,
2.321,0.00991821,
2.3215,-0.0273132,
2.322,0.0297546,
2.3225,0.13092,
2.323,0.206451,
2.3235,0.248566,
2.324,0.233459,
2.3245,0.163269,
2.325,0.0793457,
2.3255,0.0134277,
2.326,-0.121918,
2.3265,-0.3862,
2.327,-0.580292,
2.3275,-0.577087,
2.328,-0.455017,
2.3285,-0.295105,
2.329,-0.118103,
2.3295,0.0527954,
2.33,0.193787,
2.3305,0.227203,
2.331,0.0151062,
2.3315,-0.329437,
2.332,-0.4776,
2.3325,-0.416565,
2.333,-0.324402,
2.3335,-0.261536,
2.334,-0.103149,
2.3345,0.156708,
2.335,0.300903,
2.3355,0.270233,
2.336,0.24826,
2.3365,0.331726,
2.337,0.442352,
2.3375,0.471954,
2.338,0.370331,
2.3385,0.170288,
2.339,-0.0131226,
2.3395,-0.119019,
2.34,-0.110016,
2.3405,0.0253296,
2.341,0.174561,
2.3415,0.222168,
2.342,0.179138,
2.3425,0.108337,
2.343,0.04776,
2.3435,0.0491333,
2.344,0.10788,
2.3445,0.168304,
2.345,0.13504,
2.3455,-0.00793457,
2.346,-0.116119,
2.3465,-0.121765,
2.347,-0.112,
2.3475,-0.138397,
2.348,-0.171661,
2.3485,-0.157013,
2.349,-0.0697327,
2.3495,0.0230408,
2.35,0.0532532,
2.3505,0.0424194,
2.351,0.0398254,
2.3515,0.0360107,
2.352,0.0149536,
2.3525,0.01297,
2.353,0.0408936,
2.3535,0.0704956,
2.354,0.0888062,
2.3545,0.123749,
2.355,0.150299,
2.3555,0.0950623,
2.356,-0.0369263,
2.3565,-0.127411,
2.357,-0.13504,
2.3575,-0.104065,
2.358,-0.0590515,
2.3585,-0.00732422,
2.359,0.0231934,
2.3595,0.00808716,
2.36,-0.0317383,
2.3605,-0.0384521,
2.361,-0.0109863,
2.3615,0.00640869,
2.362,-0.0242615,
2.3625,-0.0836182,
2.363,-0.121918,
2.3635,-0.122223,
2.364,-0.0860596,
2.3645,-0.0120544,
2.365,0.0709534,
2.3655,0.0772095,
2.366,0.00564575,
2.3665,-0.0933838,
2.367,-0.165253,
2.3675,-0.187531,
2.368,-0.183563,
2.3685,-0.151367,
2.369,-0.102234,
2.3695,-0.11734,
2.37,-0.198669,
2.3705,-0.239563,
2.371,-0.147705,
2.3715,0.00808716,
2.372,0.132599,
2.3725,0.207977,
2.373,0.210114,
2.3735,0.147247,
2.374,0.103607,
2.3745,0.0883484,
2.375,0.0569153,
2.3755,0.032196,
2.376,0.0531006,
2.3765,0.109863,
2.377,0.167542,
2.3775,0.212708,
2.378,0.226288,
2.3785,0.187531,
2.379,0.124512,
2.3795,0.0814819,
2.38,0.0604248,
2.3805,0.0474548,
2.381,0.0402832,
2.3815,0.0382996,
2.382,0.0361633,
2.3825,0.0337219,
2.383,0.0314331,
2.3835,0.0375366,
2.384,0.0508118,
2.3845,0.0402832,
2.385,0.0238037,
2.3855,0.0233459,
2.386,0.00854492,
2.3865,-0.0299072,
2.387,-0.0570679,
2.3875,-0.0543213,
2.388,-0.0257874,
2.3885,0.00152588,
2.389,0.0143433,
2.3895,0.0308228,
2.39,0.014801,
2.3905,-0.0558472,
2.391,-0.119934,
2.3915,-0.19455,
2.392,-0.409546,
2.3925,-0.609589,
2.393,-0.628967,
2.3935,-0.538788,
2.394,-0.450287,
2.3945,-0.335541,
2.395,-0.174255,
2.3955,-0.118866,
2.396,-0.225983,
2.3965,-0.247955,
2.397,-0.127258,
2.3975,-0.0578308,
2.398,-0.0952148,
2.3985,-0.109406,
2.399,-0.0402832,
2.3995,0.039978,
2.4,0.0820923,
2.4005,0.132294,
2.401,0.250397,
2.4015,0.384979,
2.402,0.445862,
2.4025,0.437012,
2.403,0.431366,
2.4035,0.441284,
2.404,0.463867,
2.4045,0.492859,
2.405,0.47699,
2.4055,0.415802,
2.406,0.327454,
2.4065,0.15213,
2.407,-0.0396729,
2.4075,-0.0875854,
2.408,-0.0502014,
2.4085,0.0125122,
2.409,0.11261,
2.4095,0.202942,
2.41,0.232544,
2.4105,0.221252,
2.411,0.180969,
2.4115,0.103149,
2.412,0.018158,
2.4125,-0.139923,
2.413,-0.50766,
2.4135,-0.818787,
2.414,-0.840149,
2.4145,-0.688019,
2.415,-0.485382,
2.4155,-0.226135,
2.416,0.0630188,
2.4165,0.261993,
2.417,0.286713,
2.4175,0.230255,
2.418,0.203247,
2.4185,0.166626,
2.419,0.0888062,
2.4195,0.0375366,
2.42,0.0393677,
2.4205,0.00411987,
2.421,-0.143738,
2.4215,-0.354462,
2.422,-0.570221,
2.4225,-0.753021,
2.423,-0.770416,
2.4235,-0.563507,
2.424,-0.201721,
2.4245,0.193634,
2.425,0.483856,
2.4255,0.605927,
2.426,0.608215,
2.4265,0.547485,
2.427,0.399323,
2.4275,0.194397,
2.428,0.112762,
2.4285,0.238953,
2.429,0.4245,
2.4295,0.491943,
2.43,0.402374,
2.4305,0.152588,
2.431,-0.140686,
2.4315,-0.347137,
2.432,-0.416412,
2.4325,-0.339355,
2.433,-0.160217,
2.4335,0.045166,
2.434,0.192719,
2.4345,0.273438,
2.435,0.314941,
2.4355,0.335999,
2.436,0.330353,
2.4365,0.244141,
2.437,0.113068,
2.4375,0.0189209,
2.438,-0.0379944,
2.4385,-0.0379944,
2.439,-0.00717163,
2.4395,-0.0376892,
2.44,-0.132141,
2.4405,-0.22049,
2.441,-0.244598,
2.4415,-0.227509,
2.442,-0.201874,
2.4425,-0.178528,
2.443,-0.134583,
2.4435,-0.0823975,
2.444,-0.0331116,
2.4445,0.0256348,
2.445,0.0828552,
2.4455,0.170593,
2.446,0.267181,
2.4465,0.28183,
2.447,0.176392,
2.4475,0.0410461,
2.448,0.00839233,
2.4485,0.0688171,
2.449,0.105133,
2.4495,0.0674438,
2.45,-0.00152588,
2.4505,-0.0730896,
2.451,-0.136719,
2.4515,-0.144043,
2.452,-0.139618,
2.4525,-0.271149,
2.453,-0.611725,
2.4535,-0.848389,
2.454,-0.80368,
2.4545,-0.59021,
2.455,-0.340424,
2.4555,-0.0419617,
2.456,0.264435,
2.4565,0.492096,
2.457,0.61203,
2.4575,0.588074,
2.458,0.429077,
2.4585,0.224304,
2.459,0.0411987,
2.4595,-0.0752258,
2.46,-0.109406,
2.4605,-0.0666809,
2.461,0.00900269,
2.4615,0.0466919,
2.462,-0.00808716,
2.4625,-0.0749207,
2.463,-0.0907898,
2.4635,-0.0508118,
2.464,0.0135803,
2.4645,0.0694275,
2.465,0.0958252,
2.4655,0.0964355,
2.466,0.0654602,
2.4665,0.0183105,
2.467,-0.0233459,
2.4675,-0.0617981,
2.468,-0.0588989,
2.4685,-0.00915527,
2.469,0.025177,
2.4695,0.00930786,
2.47,-0.0328064,
2.4705,-0.0743103,
2.471,-0.0773621,
2.4715,-0.0186157,
2.472,0.0978088,
2.4725,0.19165,
2.473,0.166473,
2.4735,0.0541687,
2.474,-0.0300598,
2.4745,-0.0468445,
2.475,-0.0280762,
2.4755,-0.0198364,
2.476,-0.0534058,
2.4765,-0.171509,
2.477,-0.370331,
2.4775,-0.574188,
2.478,-0.697937,
2.4785,-0.635834,
2.479,-0.415039,
2.4795,-0.143585,
2.48,0.0932312,
2.4805,0.232544,
2.481,0.300598,
2.4815,0.319214,
2.482,0.29953,
2.4825,0.275879,
2.483,0.227203,
2.4835,0.149078,
2.484,0.16037,
2.4845,0.32196,
2.485,0.42099,
2.4855,0.29953,
2.486,0.0862122,
2.4865,-0.0575256,
2.487,-0.101776,
2.4875,-0.0917053,
2.488,-0.0343323,
2.4885,0.0537109,
2.489,0.128632,
2.4895,0.180054,
2.49,0.177765,
2.4905,0.141449,
2.491,0.0883484,
2.4915,-0.0602722,
2.492,-0.33493,
2.4925,-0.513916,
2.493,-0.483246,
2.4935,-0.396881,
2.494,-0.366821,
2.4945,-0.298767,
2.495,-0.11795,
2.4955,0.0447083,
2.496,0.120697,
2.4965,0.208435,
2.497,0.307312,
2.4975,0.350647,
2.498,0.309601,
2.4985,0.167389,
2.499,0.0050354,
2.4995,-0.0556946,
2.5,-0.0141907,
2.5005,0.018158,
2.501,-0.130005,
2.5015,-0.434418,
2.502,-0.561371,
2.5025,-0.657806,
2.503,-0.929413,
2.5035,-1.09695,
2.504,-0.989075,
2.5045,-0.671387,
2.505,-0.239105,
2.5055,0.20813,
2.506,0.610199,
2.5065,0.882874,
2.507,0.990295,
2.5075,0.94574,
2.508,0.766754,
2.5085,0.565796,
2.509,0.439911,
2.5095,0.411072,
2.51,0.405884,
2.5105,0.322571,
2.511,0.166473,
2.5115,-0.0183105,
2.512,-0.227966,
2.5125,-0.384369,
2.513,-0.457153,
2.5135,-0.449982,
2.514,-0.347443,
2.5145,-0.131836,
2.515,0.116425,
2.5155,0.261841,
2.516,0.265503,
2.5165,0.185547,
2.517,0.111847,
2.5175,0.0933838,
2.518,0.127563,
2.5185,0.229187,
2.519,0.394135,
2.5195,0.483856,
2.52,0.457306,
2.5205,0.364685,
2.521,0.309753,
2.5215,0.244446,
2.522,0.090332,
2.5225,-0.0534058,
2.523,-0.10025,
2.5235,-0.0933838,
2.524,-0.105743,
2.5245,-0.0941467,
2.525,-0.0404358,
2.5255,-0.0180054,
2.526,-0.0302124,
2.5265,0.00793457,
2.527,0.0654602,
2.5275,0.0520325,
2.528,-0.0701904,
2.5285,-0.24292,
2.529,-0.332336,
2.5295,-0.342865,
2.53,-0.326538,
2.5305,-0.275726,
2.531,-0.20813,
2.5315,-0.167847,
2.532,-0.150146,
2.5325,-0.131531,
2.533,-0.0984192,
2.5335,-0.0767517,
2.534,-0.199127,
2.5345,-0.719604,
2.535,-1.26892,
2.5355,-1.33286,
2.536,-1.06354,
2.5365,-0.94223,
2.537,-1.05011,
2.5375,-0.961609,
2.538,-0.574341,
2.5385,-0.0869751,
2.539,0.435944,
2.5395,0.975342,
2.54,1.39114,
2.5405,1.5863,
2.541,1.56464,
2.5415,1.44485,
2.542,1.24619,
2.5425,0.953522,
2.543,0.595856,
2.5435,0.219727,
2.544,-0.0682068,
2.5445,-0.134735,
2.545,-0.085907,
2.5455,-0.0520325,
2.546,-0.0390625,
2.5465,-0.0106812,
2.547,0.0265503,
2.5475,0.0323486,
2.548,0.012207,
2.5485,-0.0585938,
2.549,-0.244141,
2.5495,-0.395508,
2.55,-0.392151,
2.5505,-0.339813,
2.551,-0.275726,
2.5515,-0.137787,
2.552,0.0239563,
2.5525,0.115662,
2.553,0.136261,
2.5535,0.139313,
2.554,0.117188,
2.5545,-0.0248718,
2.555,-0.198822,
2.5555,-0.285339,
2.556,-0.289917,
2.5565,-0.31601,
2.557,-0.352478,
2.5575,-0.360718,
2.558,-0.374298,
2.5585,-0.318146,
2.559,-0.252533,
2.5595,-0.531158,
2.56,-1.2886,
2.5605,-2.02637,
2.561,-2.14249,
2.5615,-1.66779,
2.562,-0.959625,
2.5625,-0.2388,
2.563,0.393066,
2.5635,0.81665,
2.564,1.03622,
2.5645,1.13876,
2.565,1.16882,
2.5655,1.13602,
2.566,1.04279,
2.5665,0.919647,
2.567,0.828247,
2.5675,0.814209,
2.568,0.841064,
2.5685,0.787964,
2.569,0.670013,
2.5695,0.586853,
2.57,0.493317,
2.5705,0.374908,
2.571,0.233459,
2.5715,0.107422,
2.572,0.105286,
2.5725,0.177765,
2.573,0.171814,
2.5735,0.0776672,
2.574,0.0204468,
2.5745,0.0520325,
2.575,0.12085,
2.5755,0.145874,
2.576,0.103607,
2.5765,0.0250244,
2.577,-0.0500488,
2.5775,-0.129547,
2.578,-0.232239,
2.5785,-0.389709,
2.579,-0.595398,
2.5795,-0.736542,
2.58,-0.76828,
2.5805,-0.682831,
2.581,-0.53772,
2.5815,-0.405884,
2.582,-0.412598,
2.5825,-0.856781,
2.583,-1.42319,
2.5835,-1.54892,
2.584,-1.26099,
2.5845,-0.763855,
2.585,-0.215912,
2.5855,0.208282,
2.586,0.456848,
2.5865,0.622101,
2.587,0.801849,
2.5875,0.945282,
2.588,0.999146,
2.5885,0.941315,
2.589,0.792542,
2.5895,0.620575,
2.59,0.488892,
2.5905,0.37735,
2.591,0.233307,
2.5915,0.133667,
2.592,0.153351,
2.5925,0.197296,
2.593,0.191193,
2.5935,0.166779,
2.594,0.140839,
2.5945,0.130157,
2.595,0.157013,
2.5955,0.195465,
2.596,0.154724,
2.5965,0.0328064,
2.597,-0.0437927,
2.5975,-0.0756836,
2.598,-0.143738,
2.5985,-0.23941,
2.599,-0.334625,
2.5995,-0.384827,
2.6,-0.344391,
2.6005,-0.257416,
2.601,-0.196381,
2.6015,-0.154419,
2.602,-0.075531,
2.6025,-0.0170898,
2.603,-0.0447083,
2.6035,-0.098877,
2.604,-0.122681,
2.6045,-0.126343,
2.605,-0.115967,
2.6055,-0.0920105,
2.606,-0.0460815,
2.6065,0.0224304,
2.607,0.0953674,
2.6075,0.119934,
2.608,0.092926,
2.6085,0.0523376,
2.609,0.0259399,
2.6095,0.0170898,
2.61,0.0274658,
2.6105,0.0617981,
2.611,0.110016,
2.6115,0.114136,
2.612,0.0665283,
2.6125,0.00335693,
2.613,-0.0419617,
2.6135,-0.0730896,
2.614,-0.13031,
2.6145,-0.24826,
2.615,-0.447693,
2.6155,-0.61554,
2.616,-0.613861,
2.6165,-0.435181,
2.617,-0.177765,
2.6175,0.03479,
2.618,0.137634,
2.6185,0.167542,
2.619,0.142975,
2.6195,0.0639343,
2.62,-0.0241089,
2.6205,-0.0849915,
2.621,-0.108032,
2.6215,-0.227051,
2.622,-0.610657,
2.6225,-1.29074,
2.623,-1.8924,
2.6235,-2.00775,
2.624,-1.70441,
2.6245,-1.4209,
2.625,-1.37344,
2.6255,-1.21185,
2.626,-0.705566,
2.6265,0.0392151,
2.627,0.77652,
2.6275,1.29761,
2.628,1.60355,
2.6285,1.77979,
2.629,1.94611,
2.6295,2.07138,
2.63,2.00531,
2.6305,1.76865,
2.631,1.55594,
2.6315,1.32141,
2.632,0.979309,
2.6325,0.752258,
2.633,0.740509,
2.6335,0.747986,
2.634,0.644226,
2.6345,0.5159,
2.635,0.420074,
2.6355,0.323639,
2.636,0.205078,
2.6365,0.0895691,
2.637,0.0424194,
2.6375,0.0514221,
2.638,0.045929,
2.6385,0.00640869,
2.639,-0.0582886,
2.6395,-0.119476,
2.64,-0.17868,
2.6405,-0.227814,
2.641,-0.251465,
2.6415,-0.269928,
2.642,-0.273895,
2.6425,-0.23468,
2.643,-0.173492,
2.6435,-0.153351,
2.644,-0.2211,
2.6445,-0.310211,
2.645,-0.328674,
2.6455,-0.299072,
2.646,-0.283203,
2.6465,-0.261688,
2.647,-0.214691,
2.6475,-0.19455,
2.648,-0.245514,
2.6485,-0.370789,
2.649,-0.516357,
2.6495,-0.62973,
2.65,-0.676575,
2.6505,-0.676422,
2.651,-0.800018,
2.6515,-0.989075,
2.652,-0.937195,
2.6525,-0.730133,
2.653,-0.544586,
2.6535,-0.400391,
2.654,-0.268402,
2.6545,-0.16098,
2.655,-0.0497437,
2.6555,-0.0234985,
2.656,-0.0912476,
2.6565,-0.209198,
2.657,-0.287018,
2.6575,-0.22049,
2.658,-0.093689,
2.6585,0.0245667,
2.659,0.191345,
2.6595,0.344391,
2.66,0.518341,
2.6605,0.705719,
2.661,0.845795,
2.6615,0.952301,
2.662,1.0347,
2.6625,1.02936,
2.663,0.842285,
2.6635,0.561829,
2.664,0.353699,
2.6645,0.246277,
2.665,0.188141,
2.6655,0.101929,
2.666,0.00732422,
2.6665,-0.0196838,
2.667,-0.0114441,
2.6675,-0.0253296,
2.668,-0.0276184,
2.6685,-0.0212097,
2.669,-0.0105286,
2.6695,0.0250244,
2.67,0.0326538,
2.6705,-0.0218201,
2.671,-0.108185,
2.6715,-0.36499,
2.672,-0.749969,
2.6725,-0.941925,
2.673,-0.864868,
2.6735,-0.621033,
2.674,-0.240784,
2.6745,0.213928,
2.675,0.566711,
2.6755,0.728912,
2.676,0.748596,
2.6765,0.667419,
2.677,0.431366,
2.6775,0.104675,
2.678,-0.171509,
2.6785,-0.3508,
2.679,-0.429077,
2.6795,-0.380096,
2.68,-0.274506,
2.6805,-0.209656,
2.681,-0.182953,
2.6815,-0.0999451,
2.682,0.0228882,
2.6825,0.0640869,
2.683,0.000610352,
2.6835,-0.045166,
2.684,0.0187683,
2.6845,0.113373,
2.685,0.108185,
2.6855,0.0375366,
2.686,-0.00717163,
2.6865,0.0117493,
2.687,0.0918579,
2.6875,0.172424,
2.688,0.209656,
2.6885,0.189514,
2.689,0.11734,
2.6895,0.0149536,
2.69,-0.0624084,
2.6905,-0.131836,
2.691,-0.211182,
2.6915,-0.26062,
2.692,-0.302582,
2.6925,-0.335999,
2.693,-0.260162,
2.6935,-0.0984192,
2.694,0.00686646,
2.6945,0.00808716,
2.695,0.0177002,
2.6955,0.096283,
2.696,0.136414,
2.6965,0.117188,
2.697,0.0411987,
2.6975,-0.116577,
2.698,-0.251312,
2.6985,-0.428925,
2.699,-0.616302,
2.6995,-0.599823,
2.7,-0.396881,
2.7005,-0.166931,
2.701,0.000305176,
2.7015,0.0836182,
2.702,0.140228,
2.7025,0.215912,
2.703,0.298157,
2.7035,0.336761,
2.704,0.341034,
2.7045,0.339966,
2.705,0.361633,
2.7055,0.358582,
2.706,0.271149,
2.7065,0.156555,
2.707,0.106354,
2.7075,0.122833,
2.708,0.119324,
2.7085,0.0791931,
2.709,0.0587463,
2.7095,0.0361633,
2.71,0.0152588,
2.7105,0.0375366,
2.711,0.0270081,
2.7115,-0.0923157,
2.712,-0.198822,
2.7125,-0.221863,
2.713,-0.180664,
2.7135,-0.093689,
2.714,-0.0495911,
2.7145,-0.0984192,
2.715,-0.233917,
2.7155,-0.394287,
2.716,-0.479889,
2.7165,-0.627289,
2.717,-1.07269,
2.7175,-1.37665,
2.718,-1.16592,
2.7185,-0.717926,
2.719,-0.266876,
2.7195,0.175171,
2.72,0.564728,
2.7205,0.850372,
2.721,1.05133,
2.7215,1.15585,
2.722,1.064,
2.7225,0.838928,
2.723,0.625153,
2.7235,0.461731,
2.724,0.313721,
2.7245,0.189667,
2.725,0.158081,
2.7255,0.193481,
2.726,0.127563,
2.7265,-0.0842285,
2.727,-0.281219,
2.7275,-0.360565,
2.728,-0.356293,
2.7285,-0.26413,
2.729,-0.0752258,
2.7295,0.113525,
2.73,0.202484,
2.7305,0.176849,
2.731,0.130157,
2.7315,0.154266,
2.732,0.210724,
2.7325,0.189514,
2.733,0.105438,
2.7335,0.0686646,
2.734,0.0775146,
2.7345,0.0602722,
2.735,-0.0138855,
2.7355,-0.185394,
2.736,-0.44342,
2.7365,-0.588684,
2.737,-0.482635,
2.7375,-0.271759,
2.738,-0.0488281,
2.7385,0.187225,
2.739,0.344696,
2.7395,0.415497,
2.74,0.470886,
2.7405,0.489807,
2.741,0.394745,
2.7415,0.207062,
2.742,0.0654602,
2.7425,-0.000762939,
2.743,-0.0497437,
2.7435,-0.0801086,
2.744,-0.067749,
2.7445,-0.0466919,
2.745,-0.055542,
2.7455,-0.0601196,
2.746,-0.0639343,
2.7465,-0.0630188,
2.747,-0.0588989,
2.7475,-0.0549316,
2.748,-0.0308228,
2.7485,0.0312805,
2.749,-0.0109863,
2.7495,-0.485229,
2.75,-1.20972,
2.7505,-1.73065,
2.751,-1.85699,
2.7515,-1.61957,
2.752,-1.26175,
2.7525,-1.04767,
2.753,-0.826416,
2.7535,-0.505371,
2.754,-0.304871,
2.7545,-0.26886,
2.755,-0.0114441,
2.7555,0.506744,
2.756,0.973206,
2.7565,1.34338,
2.757,1.68411,
2.7575,1.85135,
2.758,1.80115,
2.7585,1.61835,
2.759,1.36139,
2.7595,1.09055,
2.76,0.812225,
2.7605,0.528107,
2.761,0.331116,
2.7615,0.22644,
2.762,0.170288,
2.7625,0.133972,
2.763,0.0990295,
2.7635,0.0502014,
2.764,0.0114441,
2.7645,0.00488281,
2.765,-0.00457764,
2.7655,-0.0814819,
2.766,-0.173492,
2.7665,-0.235443,
2.767,-0.299225,
2.7675,-0.309448,
2.768,-0.24765,
2.7685,-0.159454,
2.769,-0.0930786,
2.7695,-0.0952148,
2.77,-0.13031,
2.7705,-0.138702,
2.771,-0.152283,
2.7715,-0.188293,
2.772,-0.19455,
2.7725,-0.153351,
2.773,-0.110931,
2.7735,-0.134125,
2.774,-0.179749,
2.7745,-0.161896,
2.775,-0.121765,
2.7755,-0.101624,
2.776,-0.0350952,
2.7765,0.0474548,
2.777,0.018158,
2.7775,-0.101624,
2.778,-0.232849,
2.7785,-0.349884,
2.779,-0.431061,
2.7795,-0.406342,
2.78,-0.235443,
2.7805,-0.0012207,
2.781,0.102234,
2.7815,-0.00793457,
2.782,-0.197601,
2.7825,-0.296021,
2.783,-0.283966,
2.7835,-0.220947,
2.784,-0.149689,
2.7845,-0.0854492,
2.785,-0.0436401,
2.7855,-0.0111389,
2.786,-0.00961304,
2.7865,-0.123444,
2.787,-0.263977,
2.7875,-0.303802,
2.788,-0.253296,
2.7885,-0.180511,
2.789,-0.0952148,
2.7895,0.0238037,
2.79,0.133362,
2.7905,0.158997,
2.791,0.105286,
2.7915,0.0088501,
2.792,-0.131226,
2.7925,-0.277863,
2.793,-0.365753,
2.7935,-0.39032,
2.794,-0.30899,
2.7945,-0.0991821,
2.795,0.187225,
2.7955,0.370483,
2.796,0.371704,
2.7965,0.312042,
2.797,0.2565,
2.7975,0.192871,
2.798,0.163269,
2.7985,0.182037,
2.799,0.172424,
2.7995,0.134735,
2.8,0.117798,
2.8005,0.0968933,
2.801,0.0444031,
2.8015,-0.00915527,
2.802,-0.0340271,
2.8025,-0.0569153,
2.803,-0.0700378,
2.8035,-0.0161743,
2.804,0.0930786,
2.8045,0.175781,
2.805,0.196381,
2.8055,0.178375,
2.806,0.169525,
2.8065,0.161743,
2.807,0.12558,
2.8075,0.0811768,
2.808,0.040741,
2.8085,-0.00350952,
2.809,-0.0369263,
2.8095,-0.0466919,
2.81,-0.0338745,
2.8105,-0.0292969,
2.811,-0.0727844,
2.8115,-0.174255,
2.812,-0.258789,
2.8125,-0.256348,
2.813,-0.179443,
2.8135,-0.101929,
2.814,-0.0759888,
2.8145,-0.115356,
2.815,-0.131531,
2.8155,-0.052948,
2.816,0.0442505,
2.8165,0.0994873,
2.817,0.114746,
2.8175,0.120392,
2.818,0.141144,
2.8185,0.195618,
2.819,0.26001,
2.8195,0.269165,
2.82,0.222473,
2.8205,0.187683,
2.821,0.175781,
2.8215,0.168457,
2.822,0.140991,
2.8225,-0.0848389,
2.823,-0.592957,
2.8235,-0.931854,
2.824,-0.952606,
2.8245,-0.949249,
2.825,-0.930786,
2.8255,-0.683136,
2.826,-0.243988,
2.8265,0.188141,
2.827,0.501404,
2.8275,0.685577,
2.828,0.733795,
2.8285,0.698242,
2.829,0.636597,
2.8295,0.524902,
2.83,0.389709,
2.8305,0.316925,
2.831,0.314331,
2.8315,0.309753,
2.832,0.287476,
2.8325,0.280609,
2.833,0.326538,
2.8335,0.390167,
2.834,0.405731,
2.8345,0.346832,
2.835,0.254059,
2.8355,0.15274,
2.836,0.045929,
2.8365,-0.0289917,
2.837,-0.105438,
2.8375,-0.192566,
2.838,-0.209656,
2.8385,-0.138245,
2.839,-0.0698853,
2.8395,-0.0234985,
2.84,0.0408936,
2.8405,0.0732422,
2.841,0.087738,
2.8415,0.113373,
2.842,0.128174,
2.8425,0.115509,
2.843,0.0590515,
2.8435,-0.0216675,
2.844,-0.0694275,
2.8445,-0.0569153,
2.845,-0.0263977,
2.8455,-0.0131226,
2.846,-0.0534058,
2.8465,-0.109863,
2.847,-0.111084,
2.8475,-0.065155,
2.848,-0.0413513,
2.8485,-0.0547791,
2.849,-0.0813293,
2.8495,-0.119019,
2.85,-0.152435,
2.8505,-0.155792,
2.851,-0.105896,
2.8515,-0.0665283,
2.852,-0.0888062,
2.8525,-0.109558,
2.853,-0.10849,
2.8535,-0.137482,
2.854,-0.179901,
2.8545,-0.178986,
2.855,-0.142365,
2.8555,-0.106964,
2.856,-0.0967407,
2.8565,-0.0947571,
2.857,-0.0875854,
2.8575,-0.0804138,
2.858,-0.0843811,
2.8585,-0.113831,
2.859,-0.186462,
2.8595,-0.216827,
2.86,-0.158386,
2.8605,-0.0984192,
2.861,-0.0991821,
2.8615,-0.105896,
2.862,-0.0143433,
2.8625,0.147247,
2.863,0.204315,
2.8635,0.115814,
2.864,0.0262451,
2.8645,0.0196838,
2.865,0.0276184,
2.8655,0.027771,
2.866,0.0611877,
2.8665,0.146027,
2.867,0.199738,
2.8675,0.158081,
2.868,0.0811768,
2.8685,0.0282288,
2.869,-0.0062561,
2.8695,-0.0561523,
2.87,-0.10437,
2.8705,-0.1091,
2.871,-0.0776672,
2.8715,-0.0494385,
2.872,-0.0315857,
2.8725,-0.0152588,
2.873,-0.00457764,
2.8735,0.00930786,
2.874,0.03479,
2.8745,0.0437927,
2.875,0.0257874,
2.8755,0.00518799,
2.876,-0.00671387,
2.8765,-0.0102234,
2.877,-0.0125122,
2.8775,-0.03479,
2.878,-0.107422,
2.8785,-0.178986,
2.879,-0.184174,
2.8795,-0.135803,
2.88,-0.0727844,
2.8805,-0.0195313,
2.881,0.030365,
2.8815,0.0765991,
2.882,0.103302,
2.8825,0.105133,
2.883,0.0865173,
2.8835,0.0617981,
2.884,0.0437927,
2.8845,0.0404358,
2.885,0.042572,
2.8855,0.0216675,
2.886,-0.0410461,
2.8865,-0.0891113,
2.887,-0.0738525,
2.8875,-0.00488281,
2.888,0.0500488,
2.8885,0.0486755,
2.889,0.0294495,
2.8895,0.0222778,
2.89,0.0177002,
2.8905,0,
2.891,-0.0291443,
2.8915,-0.0598145,
2.892,-0.0898743,
2.8925,-0.0944519,
2.893,-0.050354,
2.8935,-0.0434875,
2.894,-0.123749,
2.8945,-0.179901,
2.895,-0.168457,
2.8955,-0.131378,
2.896,-0.096283,
2.8965,-0.059967,
2.897,-0.0308228,
2.8975,-0.010376,
2.898,0.0242615,
2.8985,0.0737,
2.899,0.09552,
2.8995,0.0648499,
2.9,0.0271606,
2.9005,0.0372314,
2.901,0.0531006,
2.9015,0.0192261,
2.902,-0.0164795,
2.9025,0.00274658,
2.903,0.0746155,
2.9035,0.103302,
2.904,0.0668335,
2.9045,0.0366211,
2.905,0.0440979,
2.9055,0.0712585,
2.906,0.0779724,
2.9065,0.0805664,
2.907,0.0906372,
2.9075,0.0904846,
2.908,0.0889587,
2.9085,0.0823975,
2.909,0.0627136,
2.9095,0.00289917,
2.91,-0.16571,
2.9105,-0.349731,
2.911,-0.446167,
2.9115,-0.401917,
2.912,-0.238037,
2.9125,-0.0398254,
2.913,0.132751,
2.9135,0.26535,
2.914,0.34256,
2.9145,0.358734,
2.915,0.320435,
2.9155,0.25116,
2.916,0.177002,
2.9165,0.0968933,
2.917,0.0442505,
2.9175,0.0732422,
2.918,0.177612,
2.9185,0.22583,
2.919,0.156708,
2.9195,0.0489807,
2.92,-0.0114441,
2.9205,-0.0163269,
2.921,-0.0134277,
2.9215,-0.0292969,
2.922,-0.0463867,
2.9225,-0.0686646,
2.923,-0.0764465,
2.9235,-0.0524902,
2.924,-0.0253296,
2.9245,-0.0628662,
2.925,-0.14267,
2.9255,-0.148773,
2.926,-0.090332,
2.9265,-0.0506592,
2.927,-0.0437927,
2.9275,-0.0474548,
2.928,-0.0495911,
2.9285,-0.0523376,
2.929,-0.0520325,
2.9295,-0.0598145,
2.93,-0.0689697,
2.9305,-0.032959,
2.931,0.0241089,
2.9315,0.0402832,
2.932,0.0108337,
2.9325,-0.0267029,
2.933,-0.0578308,
2.9335,-0.0878906,
2.934,-0.110626,
2.9345,-0.112305,
2.935,-0.0953674,
2.9355,-0.0712585,
2.936,-0.0408936,
2.9365,-0.00976563,
2.937,0.0222778,
2.9375,0.055542,
2.938,0.106201,
2.9385,0.161133,
2.939,0.188599,
2.9395,0.189056,
2.94,0.151978,
2.9405,0.120087,
2.941,0.115814,
2.9415,0.123138,
2.942,0.133514,
2.9425,0.124054,
2.943,0.0930786,
2.9435,0.0764465,
2.944,0.083313,
2.9445,0.096283,
2.945,0.0944519,
2.9455,0.0552368,
2.946,0.00411987,
2.9465,-0.0268555,
2.947,-0.0492859,
2.9475,-0.0839233,
2.948,-0.121002,
2.9485,-0.131531,
2.949,-0.100403,
2.9495,-0.0604248,
2.95,-0.0444031,
2.9505,-0.0402832,
2.951,-0.0187683,
2.9515,0.00839233,
2.952,0.00747681,
2.9525,0.000762939,
2.953,0.0117493,
2.9535,0.0282288,
2.954,0.0146484,
2.9545,-0.0256348,
2.955,-0.0387573,
2.9555,-0.0218201,
2.956,-0.000610352,
2.9565,0.00671387,
2.957,-0.00778198,
2.9575,-0.0311279,
2.958,-0.0521851,
2.9585,-0.067749,
2.959,-0.0823975,
2.9595,-0.100708,
2.96,-0.106812,
2.9605,-0.09552,
2.961,-0.0770569,
2.9615,-0.0769043,
2.962,-0.0901794,
2.9625,-0.0794983,
2.963,-0.0428772,
2.9635,0.0158691,
2.964,0.0817871,
2.9645,0.0865173,
2.965,0.0331116,
2.9655,0.00915527,
2.966,0.0305176,
2.9665,0.03479,
2.967,0.0247192,
2.9675,0.0146484,
2.968,-0.00305176,
2.9685,-0.0012207,
2.969,0.0250244,
2.9695,0.0292969,
2.97,-0.012207,
2.9705,-0.0706482,
2.971,-0.110931,
2.9715,-0.106659,
2.972,-0.0794983,
2.9725,-0.0694275,
2.973,-0.0712585,
2.9735,-0.070343,
2.974,-0.0721741,
2.9745,-0.0784302,
2.975,-0.0691223,
2.9755,-0.0366211,
2.976,-0.0205994,
2.9765,-0.0395203,
2.977,-0.0735474,
2.9775,-0.0820923,
2.978,-0.06073,
2.9785,-0.0152588,
2.979,0.0416565,
2.9795,0.0686646,
2.98,0.0631714,
2.9805,0.0556946,
2.981,0.0776672,
2.9815,0.115509,
2.982,0.125275,
2.9825,0.102386,
2.983,0.0718689,
2.9835,0.0537109,
2.984,0.0540161,
2.9845,0.0523376,
2.985,0.0302124,
2.9855,-0.00762939,
2.986,-0.040741,
2.9865,-0.0778198,
2.987,-0.14267,
2.9875,-0.294342,
2.988,-0.422668,
2.9885,-0.427094,
2.989,-0.343018,
2.9895,-0.242004,
2.99,-0.140839,
2.9905,-0.0198364,
2.991,0.106049,
2.9915,0.175781,
2.992,0.137329,
2.9925,0.0454712,
2.993,-0.00198364,
2.9935,0.0164795,
2.994,0.0639343,
2.9945,0.114288,
2.995,0.156555,
2.9955,0.175171,
2.996,0.140381,
2.9965,0.112762,
2.997,0.145721,
2.9975,0.193481,
2.998,0.19516,
2.9985,0.180054,
2.999,0.190735,
2.9995,0.217438,
3,0.211334,
3.0005,0.160828,
3.001,0.085907,
3.0015,0.0262451,
3.002,0.00686646,
3.0025,0.00137329,
3.003,-0.00167847,
3.0035,0.0312805,
3.004,0.0645447,
3.0045,0.0308228,
3.005,-0.0334167,
3.0055,-0.0662231,
3.006,-0.0848389,
3.0065,-0.111542,
3.007,-0.127869,
3.0075,-0.112762,
3.008,-0.0871277,
3.0085,-0.0784302,
3.009,-0.0901794,
3.0095,-0.100098,
3.01,-0.0939941,
3.0105,-0.0500488,
3.011,0.032196,
3.0115,0.0926208,
3.012,0.110474,
3.0125,0.105286,
3.013,0.0846863,
3.0135,0.0506592,
3.014,0.0190735,
3.0145,0.00244141,
3.015,-0.0140381,
3.0155,-0.0483704,
3.016,-0.0846863,
3.0165,-0.118561,
3.017,-0.146179,
3.0175,-0.169373,
3.018,-0.179291,
3.0185,-0.132141,
3.019,-0.0195313,
3.0195,0.0900269,
3.02,0.101929,
3.0205,0.0288391,
3.021,-0.0325012,
3.0215,-0.0524902,
3.022,-0.0590515,
3.0225,-0.0537109,
3.023,-0.0312805,
3.0235,-0.0158691,
3.024,-0.0190735,
3.0245,-0.0238037,
3.025,-0.0306702,
3.0255,-0.063324,
3.026,-0.111237,
3.0265,-0.135651,
3.027,-0.132294,
3.0275,-0.120239,
3.028,-0.0773621,
3.0285,0.0108337,
3.029,0.0993347,
3.0295,0.131989,
3.03,0.118408,
3.0305,0.0950623,
3.031,0.0784302,
3.0315,0.0901794,
3.032,0.0941467,
3.0325,0.0538635,
3.033,0.0294495,
3.0335,0.102234,
3.034,0.216522,
3.0345,0.213165,
3.035,0.0657654,
3.0355,-0.0788879,
3.036,-0.0704956,
3.0365,0.0654602,
3.037,0.194244,
3.0375,0.215607,
3.038,0.150452,
3.0385,0.0823975,
3.039,0.0268555,
3.0395,0.0012207,
3.04,0.0344849,
3.0405,0.0692749,
3.041,0.0686646,
3.0415,0.0465393,
3.042,0.0172424,
3.0425,-0.0210571,
3.043,-0.0662231,
3.0435,-0.0970459,
3.044,-0.123444,
3.0445,-0.16098,
3.045,-0.184326,
3.0455,-0.172272,
3.046,-0.144043,
3.0465,-0.129089,
3.047,-0.131683,
3.0475,-0.135651,
3.048,-0.133667,
3.0485,-0.114288,
3.049,-0.0721741,
3.0495,-0.0372314,
3.05,-0.0350952,
3.0505,-0.0408936,
3.051,-0.0161743,
3.0515,0.0140381,
3.052,0.0192261,
3.0525,-0.0170898,
3.053,-0.0447083,
3.0535,-0.0151062,
3.054,0.0248718,
3.0545,0.0639343,
3.055,0.11795,
3.0555,0.139618,
3.056,0.106812,
3.0565,0.0709534,
3.057,0.0514221,
3.0575,0.0544739,
3.058,0.0570679,
3.0585,0.00900269,
3.059,-0.098114,
3.0595,-0.189209,
3.06,-0.208435,
3.0605,-0.146179,
3.061,-0.0613403,
3.0615,-0.0256348,
3.062,-0.0215149,
3.0625,-0.0111389,
3.063,0.0257874,
3.0635,0.0474548,
3.064,0.0125122,
3.0645,-0.0250244,
3.065,-0.00869751,
3.0655,0.0518799,
3.066,0.0720215,
3.0665,0.0143433,
3.067,-0.042572,
3.0675,-0.0370789,
3.068,0.00183105,
3.0685,0.0241089,
3.069,0.0410461,
3.0695,0.0454712,
3.07,0.00946045,
3.0705,-0.0721741,
3.071,-0.146942,
3.0715,-0.145721,
3.072,-0.0796509,
3.0725,-0.0396729,
3.073,-0.0521851,
3.0735,-0.0726318,
3.074,-0.0727844,
3.0745,-0.0732422,
3.075,-0.0608826,
3.0755,-0.0415039,
3.076,-0.0410461,
3.0765,-0.0447083,
3.077,-0.032959,
3.0775,-0.0169373,
3.078,-0.0299072,
3.0785,-0.0610352,
3.079,-0.020752,
3.0795,0.0669861,
3.08,0.104218,
3.0805,0.0756836,
3.081,0.0212097,
3.0815,-0.0363159,
3.082,-0.091095,
3.0825,-0.121613,
3.083,-0.140228,
3.0835,-0.102081,
3.084,0.025177,
3.0845,0.166168,
3.085,0.252075,
3.0855,0.235596,
3.086,0.139008,
3.0865,0.0598145,
3.087,0.0352478,
3.0875,0.0305176,
3.088,0.00854492,
3.0885,-0.00244141,
3.089,0.012207,
3.0895,0.0640869,
3.09,0.08255,
3.0905,0.0167847,
3.091,-0.0531006,
3.0915,-0.0830078,
3.092,-0.120392,
3.0925,-0.16922,
3.093,-0.166016,
3.0935,-0.101318,
3.094,-0.0260925,
3.0945,0.032959,
3.095,0.071106,
3.0955,0.088501,
3.096,0.0965881,
3.0965,0.0738525,
3.097,0.00900269,
3.0975,-0.0445557,
3.098,-0.0823975,
3.0985,-0.0950623,
3.099,-0.0704956,
3.0995,-0.0257874,
3.1,0.0149536,
3.1005,0.0402832,
3.101,0.0245667,
3.1015,-0.0167847,
3.102,-0.0457764,
3.1025,-0.045166,
3.103,-0.0346375,
3.1035,-0.0335693,
3.104,-0.0312805,
3.1045,-0.0160217,
3.105,0.0286865,
3.1055,0.0823975,
3.106,0.136414,
3.1065,0.153961,
3.107,0.114136,
3.1075,0.062561,
3.108,0.0445557,
3.1085,0.0486755,
3.109,0.0640869,
3.1095,0.0666809,
3.11,0.0239563,
3.1105,-0.0424194,
3.111,-0.0892639,
3.1115,-0.106964,
3.112,-0.0842285,
3.1125,-0.0105286,
3.113,0.0549316,
3.1135,0.00991821,
3.114,-0.0967407,
3.1145,-0.109711,
3.115,-0.015564,
3.1155,0.0985718,
3.116,0.137177,
3.1165,0.0942993,
3.117,0.0593567,
3.1175,0.0520325,
3.118,0.0466919,
3.1185,0.0175476,
3.119,-0.0218201,
3.1195,-0.0616455,
3.12,-0.0849915,
3.1205,-0.0518799,
3.121,0.0334167,
3.1215,0.101166,
3.122,0.111694,
3.1225,0.0775146,
3.123,0.0120544,
3.1235,-0.0717163,
3.124,-0.140533,
3.1245,-0.190125,
3.125,-0.19516,
3.1255,-0.151672,
3.126,-0.101318,
3.1265,-0.0683594,
3.127,-0.0379944,
3.1275,0.0154114,
3.128,0.0357056,
3.1285,-0.0387573,
3.129,-0.115967,
3.1295,-0.108643,
3.13,-0.0779724,
3.1305,-0.0883484,
3.131,-0.110626,
3.1315,-0.126038,
3.132,-0.128784,
3.1325,-0.0823975,
3.133,0.0119019,
3.1335,0.0799561,
3.134,0.0933838,
3.1345,0.10849,
3.135,0.159302,
3.1355,0.21286,
3.136,0.232697,
3.1365,0.224152,
3.137,0.17334,
3.1375,0.0949097,
3.138,0.0398254,
3.1385,0.0112915,
3.139,0.00411987,
3.1395,0.059967,
3.14,0.164337,
3.1405,0.254669,
3.141,0.246887,
3.1415,0.160522,
3.142,0.0843811,
3.1425,0.0343323,
3.143,-0.0189209,
3.1435,-0.0666809,
3.144,-0.0996399,
3.1445,-0.140991,
3.145,-0.19165,
3.1455,-0.200958,
3.146,-0.148773,
3.1465,-0.101318,
3.147,-0.0839233,
3.1475,-0.0750732,
3.148,-0.0616455,
3.1485,-0.0543213,
3.149,-0.0952148,
3.1495,-0.156097,
3.15,-0.177307,
3.1505,-0.169525,
3.151,-0.116425,
3.1515,0.00564575,
3.152,0.119934,
3.1525,0.137024,
3.153,0.0575256,
3.1535,-0.0149536,
3.154,-0.0309753,
3.1545,-0.0190735,
3.155,-0.0164795,
3.1555,-0.0352478,
3.156,-0.0512695,
3.1565,-0.0457764,
3.157,-0.012207,
3.1575,0.0213623,
3.158,0.0228882,
3.1585,-0.00427246,
3.159,-0.0337219,
3.1595,-0.0550842,
3.16,-0.0793457,
3.1605,-0.0958252,
3.161,-0.0927734,
3.1615,-0.0798035,
3.162,-0.0662231,
3.1625,-0.0401306,
3.163,-0.00640869,
3.1635,-0.00259399,
3.164,-0.00976563,
3.1645,0.00137329,
3.165,0.0190735,
3.1655,0.0180054,
3.166,-0.0166321,
3.1665,-0.0679016,
3.167,-0.0843811,
3.1675,-0.0669861,
3.168,-0.0492859,
3.1685,0.0141907,
3.169,0.109558,
3.1695,0.166779,
3.17,0.162048,
3.1705,0.135651,
3.171,0.104675,
3.1715,0.0585938,
3.172,0.00289917,
3.1725,-0.0219727,
3.173,-0.00411987,
3.1735,0.0259399,
3.174,0.0476074,
3.1745,0.0488281,
3.175,0.040741,
3.1755,0.0280762,
3.176,0.00701904,
3.1765,-0.00213623,
3.177,0.0227356,
3.1775,0.0463867,
3.178,0.0315857,
3.1785,-0.0402832,
3.179,-0.12207,
3.1795,-0.126953,
3.18,-0.0770569,
3.1805,-0.0334167,
3.181,-0.0253296,
3.1815,-0.0474548,
3.182,-0.0512695,
3.1825,-0.0195313,
3.183,0.00198364,
3.1835,-0.0177002,
3.184,-0.0367737,
3.1845,-0.0325012,
3.185,-0.0346375,
3.1855,-0.0868225,
3.186,-0.145416,
3.1865,-0.142365,
3.187,-0.0976563,
3.1875,-0.0621033,
3.188,-0.0569153,
3.1885,-0.0621033,
3.189,-0.0453186,
3.1895,-0.00213623,
3.19,0.0346375,
3.1905,0.0543213,
3.191,0.078125,
3.1915,0.117035,
3.192,0.150146,
3.1925,0.178223,
3.193,0.199585,
3.1935,0.19165,
3.194,0.15274,
3.1945,0.13031,
3.195,0.129395,
3.1955,0.119781,
3.196,0.0854492,
3.1965,0.0570679,
3.197,0.0460815,
3.1975,0.0256348,
3.198,0.0050354,
3.1985,0.0135803,
3.199,0.0180054,
3.1995,-0.0131226,
3.2,-0.0460815,
3.2005,-0.0393677,
3.201,-0.012207,
3.2015,-0.0012207,
3.202,0.00244141,
3.2025,0.0114441,
3.203,0.0212097,
3.2035,0.0128174,
3.204,-0.00396729,
3.2045,-0.0193787,
3.205,-0.0285339,
3.2055,-0.0242615,
3.206,-0.00473022,
3.2065,-0.00930786,
3.207,-0.0408936,
3.2075,-0.0445557,
3.208,-0.0111389,
3.2085,0.0231934,
3.209,0.0256348,
3.2095,0.017395,
3.21,0.0187683,
3.2105,0.0175476,
3.211,-0.00564575,
3.2115,-0.0358582,
3.212,-0.0254822,
3.2125,0.010376,
3.213,0.00213623,
3.2135,-0.039978,
3.214,-0.0325012,
3.2145,0.00549316,
3.215,0.0498962,
3.2155,0.118713,
3.216,0.152893,
3.2165,0.138092,
3.217,0.0869751,
